vKurbelwinkel	p_Zyl_1	p_Ein	p_Aus
[KWnZOT]	[bar]	[bar]	[bar]
-360	2.8191	2.2793	2.7905
-359.9	2.8132	2.2795	2.7886
-359.8	2.8073	2.2797	2.7868
-359.7	2.8014	2.2799	2.785
-359.6	2.7955	2.2801	2.7833
-359.5	2.7896	2.2802	2.7816
-359.4	2.7837	2.2804	2.7799
-359.3	2.7779	2.2805	2.7782
-359.2	2.772	2.2807	2.7766
-359.1	2.7661	2.2809	2.775
-359	2.7603	2.281	2.7734
-358.9	2.7544	2.2811	2.7718
-358.8	2.7486	2.2813	2.7703
-358.7	2.7428	2.2814	2.7688
-358.6	2.737	2.2815	2.7673
-358.5	2.7311	2.2816	2.7659
-358.4	2.7253	2.2818	2.7645
-358.3	2.7195	2.2819	2.7631
-358.2	2.7138	2.282	2.7617
-358.1	2.708	2.2821	2.7604
-358	2.7022	2.2822	2.7591
-357.9	2.6964	2.2823	2.7577
-357.8	2.6906	2.2824	2.7564
-357.7	2.6849	2.2826	2.7551
-357.6	2.6791	2.2827	2.7538
-357.5	2.6734	2.2828	2.7526
-357.4	2.6677	2.2829	2.7515
-357.3	2.662	2.283	2.7503
-357.2	2.6563	2.283	2.7493
-357.1	2.6506	2.2831	2.7482
-357	2.6449	2.2831	2.7472
-356.9	2.6392	2.2832	2.7463
-356.8	2.6335	2.2832	2.7454
-356.7	2.6278	2.2832	2.7445
-356.6	2.6221	2.2831	2.7437
-356.5	2.6165	2.2831	2.7429
-356.4	2.6108	2.283	2.7421
-356.3	2.6052	2.2828	2.7414
-356.2	2.5994	2.2826	2.7406
-356.1	2.5937	2.2824	2.7399
-356	2.5881	2.2822	2.7392
-355.9	2.5825	2.2819	2.7385
-355.8	2.5768	2.2816	2.7378
-355.7	2.5711	2.2812	2.7371
-355.6	2.5655	2.2809	2.7365
-355.5	2.5599	2.2805	2.7358
-355.4	2.5544	2.2802	2.7352
-355.3	2.549	2.2798	2.7346
-355.2	2.5435	2.2794	2.734
-355.1	2.538	2.2789	2.7333
-355	2.5325	2.2785	2.7327
-354.9	2.5272	2.278	2.7321
-354.8	2.5219	2.2776	2.7315
-354.7	2.5166	2.2771	2.7309
-354.6	2.5113	2.2766	2.7304
-354.5	2.5062	2.2761	2.7298
-354.4	2.5011	2.2755	2.7293
-354.3	2.4961	2.2749	2.7289
-354.2	2.4912	2.2744	2.7285
-354.1	2.4864	2.2738	2.7282
-354	2.4815	2.2732	2.7279
-353.9	2.4768	2.2725	2.7278
-353.8	2.4722	2.2719	2.7277
-353.7	2.4676	2.2713	2.7277
-353.6	2.4631	2.2706	2.7277
-353.5	2.4587	2.2699	2.7279
-353.4	2.4543	2.2693	2.7282
-353.3	2.4501	2.2686	2.7286
-353.2	2.4459	2.2678	2.729
-353.1	2.4417	2.2671	2.7294
-353	2.4378	2.2663	2.7301
-352.9	2.4339	2.2656	2.7307
-352.8	2.4302	2.2648	2.7315
-352.7	2.4264	2.264	2.7323
-352.6	2.4229	2.2632	2.7331
-352.5	2.4193	2.2623	2.734
-352.4	2.4159	2.2614	2.735
-352.3	2.4126	2.2606	2.7361
-352.2	2.4094	2.2597	2.7372
-352.1	2.4064	2.2588	2.7383
-352	2.4035	2.2579	2.7395
-351.9	2.4008	2.257	2.7407
-351.8	2.3981	2.2561	2.742
-351.7	2.3956	2.2552	2.7433
-351.6	2.3932	2.2543	2.7446
-351.5	2.3911	2.2534	2.7458
-351.4	2.389	2.2525	2.7472
-351.3	2.387	2.2516	2.7485
-351.2	2.385	2.2506	2.7497
-351.1	2.3833	2.2497	2.7511
-351	2.3818	2.2488	2.7524
-350.9	2.3804	2.2478	2.7537
-350.8	2.3791	2.2468	2.755
-350.7	2.378	2.2459	2.7564
-350.6	2.377	2.2449	2.7578
-350.5	2.3762	2.2439	2.7592
-350.4	2.3754	2.2429	2.7606
-350.3	2.3748	2.242	2.7622
-350.2	2.3743	2.241	2.7637
-350.1	2.3739	2.24	2.7653
-350	2.3735	2.239	2.7669
-349.9	2.3733	2.238	2.7685
-349.8	2.3731	2.237	2.7702
-349.7	2.3731	2.236	2.7719
-349.6	2.3732	2.235	2.7735
-349.5	2.3733	2.234	2.7753
-349.4	2.3734	2.233	2.777
-349.3	2.3736	2.2319	2.7787
-349.2	2.3739	2.2309	2.7804
-349.1	2.3742	2.2299	2.7823
-349	2.3745	2.2289	2.784
-348.9	2.375	2.2278	2.7858
-348.8	2.3755	2.2268	2.7876
-348.7	2.3758	2.2258	2.7893
-348.6	2.3762	2.2247	2.791
-348.5	2.3765	2.2237	2.7928
-348.4	2.3769	2.2227	2.7945
-348.3	2.3772	2.2217	2.7962
-348.2	2.3776	2.2207	2.7979
-348.1	2.3779	2.2197	2.7995
-348	2.3783	2.2188	2.801
-347.9	2.3785	2.2178	2.8025
-347.8	2.3786	2.2168	2.8039
-347.7	2.3789	2.2159	2.8054
-347.6	2.3791	2.2149	2.8067
-347.5	2.3792	2.2139	2.808
-347.4	2.3792	2.213	2.8093
-347.3	2.3792	2.212	2.8105
-347.2	2.3792	2.211	2.8117
-347.1	2.3794	2.2101	2.8129
-347	2.3793	2.2092	2.8142
-346.9	2.3793	2.2082	2.8154
-346.8	2.3793	2.2073	2.8167
-346.7	2.3793	2.2064	2.8179
-346.6	2.3791	2.2055	2.8192
-346.5	2.3791	2.2046	2.8205
-346.4	2.379	2.2037	2.8218
-346.3	2.3789	2.2029	2.8232
-346.2	2.3788	2.2021	2.8245
-346.1	2.3788	2.2012	2.8259
-346	2.3787	2.2004	2.8274
-345.9	2.3785	2.1996	2.8288
-345.8	2.3785	2.1988	2.8303
-345.7	2.3785	2.198	2.8318
-345.6	2.3784	2.1973	2.8334
-345.5	2.3782	2.1965	2.835
-345.4	2.3781	2.1958	2.8367
-345.3	2.3782	2.1951	2.8383
-345.2	2.3781	2.1944	2.84
-345.1	2.3781	2.1937	2.8418
-345	2.3782	2.193	2.8435
-344.9	2.3781	2.1924	2.8452
-344.8	2.3778	2.1917	2.8469
-344.7	2.3777	2.1911	2.8486
-344.6	2.3777	2.1905	2.8503
-344.5	2.3776	2.1899	2.8519
-344.4	2.3775	2.1893	2.8535
-344.3	2.3773	2.1888	2.855
-344.2	2.3772	2.1882	2.8564
-344.1	2.377	2.1877	2.8578
-344	2.3769	2.1872	2.8592
-343.9	2.3768	2.1866	2.8606
-343.8	2.3766	2.1861	2.8618
-343.7	2.3765	2.1856	2.8631
-343.6	2.3763	2.1851	2.8642
-343.5	2.376	2.1846	2.8654
-343.4	2.3758	2.1841	2.8664
-343.3	2.3757	2.1836	2.8675
-343.2	2.3755	2.1831	2.8685
-343.1	2.3753	2.1827	2.8695
-343	2.3749	2.1822	2.8704
-342.9	2.3745	2.1817	2.8713
-342.8	2.3741	2.1812	2.8722
-342.7	2.3736	2.1808	2.873
-342.6	2.3732	2.1803	2.8738
-342.5	2.3728	2.1798	2.8745
-342.4	2.3722	2.1794	2.8752
-342.3	2.3718	2.1789	2.8758
-342.2	2.3712	2.1784	2.8765
-342.1	2.3705	2.178	2.8771
-342	2.3697	2.1775	2.8776
-341.9	2.369	2.177	2.8781
-341.8	2.3682	2.1765	2.8786
-341.7	2.3673	2.176	2.879
-341.6	2.3664	2.1755	2.8794
-341.5	2.3653	2.175	2.8798
-341.4	2.3642	2.1745	2.88
-341.3	2.3631	2.174	2.8802
-341.2	2.3619	2.1735	2.8804
-341.1	2.3607	2.1729	2.8805
-341	2.3595	2.1724	2.8805
-340.9	2.3581	2.1719	2.8804
-340.8	2.3568	2.1714	2.8802
-340.7	2.3555	2.1709	2.8799
-340.6	2.354	2.1704	2.8797
-340.5	2.3526	2.1699	2.8793
-340.4	2.3511	2.1695	2.8789
-340.3	2.3496	2.169	2.8784
-340.2	2.3482	2.1685	2.8779
-340.1	2.3467	2.1681	2.8773
-340	2.3451	2.1676	2.8767
-339.9	2.3435	2.1672	2.876
-339.8	2.342	2.1667	2.8753
-339.7	2.3403	2.1663	2.8746
-339.6	2.3386	2.1659	2.8738
-339.5	2.3371	2.1654	2.873
-339.4	2.3356	2.165	2.8722
-339.3	2.334	2.1646	2.8714
-339.2	2.3324	2.1642	2.8705
-339.1	2.3307	2.1638	2.8697
-339	2.3291	2.1635	2.8688
-338.9	2.3275	2.1631	2.8679
-338.8	2.326	2.1628	2.867
-338.7	2.3245	2.1624	2.8661
-338.6	2.323	2.1621	2.8652
-338.5	2.3214	2.1617	2.8642
-338.4	2.32	2.1614	2.8633
-338.3	2.3185	2.1611	2.8623
-338.2	2.317	2.1608	2.8614
-338.1	2.3155	2.1604	2.8604
-338	2.314	2.1601	2.8594
-337.9	2.3125	2.1598	2.8584
-337.8	2.311	2.1594	2.8574
-337.7	2.3095	2.1591	2.8563
-337.6	2.3081	2.1588	2.8552
-337.5	2.3066	2.1584	2.8541
-337.4	2.3053	2.1581	2.8529
-337.3	2.304	2.1578	2.8517
-337.2	2.3026	2.1575	2.8505
-337.1	2.3013	2.1572	2.8493
-337	2.3	2.1569	2.8479
-336.9	2.2987	2.1566	2.8466
-336.8	2.2975	2.1563	2.8453
-336.7	2.2963	2.1559	2.8439
-336.6	2.2951	2.1556	2.8425
-336.5	2.2939	2.1552	2.8411
-336.4	2.2927	2.1549	2.8397
-336.3	2.2916	2.1545	2.8383
-336.2	2.2904	2.1541	2.8369
-336.1	2.2892	2.1538	2.8354
-336	2.2881	2.1534	2.8339
-335.9	2.287	2.153	2.8324
-335.8	2.2859	2.1527	2.831
-335.7	2.2847	2.1523	2.8295
-335.6	2.2836	2.152	2.8281
-335.5	2.2827	2.1517	2.8266
-335.4	2.2816	2.1514	2.8252
-335.3	2.2805	2.1511	2.8238
-335.2	2.2795	2.1509	2.8224
-335.1	2.2785	2.1506	2.821
-335	2.2775	2.1503	2.8196
-334.9	2.2766	2.1501	2.8182
-334.8	2.2757	2.1499	2.8168
-334.7	2.2748	2.1496	2.8154
-334.6	2.2738	2.1494	2.8141
-334.5	2.273	2.1492	2.8127
-334.4	2.2721	2.149	2.8112
-334.3	2.2713	2.1488	2.8098
-334.2	2.2705	2.1486	2.8083
-334.1	2.2696	2.1484	2.8068
-334	2.2688	2.1483	2.8053
-333.9	2.268	2.1482	2.8037
-333.8	2.2673	2.1481	2.8022
-333.7	2.2666	2.148	2.8006
-333.6	2.2659	2.148	2.799
-333.5	2.2652	2.1479	2.7973
-333.4	2.2646	2.1479	2.7956
-333.3	2.264	2.1478	2.7939
-333.2	2.2633	2.1478	2.7922
-333.1	2.2627	2.1478	2.7904
-333	2.2622	2.1478	2.7886
-332.9	2.2617	2.1478	2.787
-332.8	2.2612	2.1478	2.7852
-332.7	2.2606	2.1478	2.7834
-332.6	2.2602	2.1479	2.7817
-332.5	2.2598	2.148	2.78
-332.4	2.2594	2.1481	2.7783
-332.3	2.259	2.1483	2.7767
-332.2	2.2586	2.1485	2.7752
-332.1	2.2582	2.1487	2.7736
-332	2.2578	2.1489	2.7721
-331.9	2.2575	2.1492	2.7707
-331.8	2.2571	2.1495	2.7693
-331.7	2.2568	2.1498	2.768
-331.6	2.2566	2.1502	2.7667
-331.5	2.2563	2.1505	2.7655
-331.4	2.2561	2.1509	2.7644
-331.3	2.2559	2.1513	2.7633
-331.2	2.2558	2.1517	2.7623
-331.1	2.2557	2.1522	2.7613
-331	2.2556	2.1527	2.7603
-330.9	2.2555	2.1532	2.7594
-330.8	2.2555	2.1537	2.7585
-330.7	2.2554	2.1543	2.7577
-330.6	2.2554	2.1549	2.7568
-330.5	2.2555	2.1554	2.756
-330.4	2.2555	2.1561	2.7552
-330.3	2.2557	2.1567	2.7544
-330.2	2.2557	2.1573	2.7536
-330.1	2.2558	2.158	2.7528
-330	2.256	2.1587	2.7521
-329.9	2.2562	2.1594	2.7513
-329.8	2.2564	2.1601	2.7506
-329.7	2.2566	2.1608	2.7498
-329.6	2.2568	2.1615	2.749
-329.5	2.257	2.1622	2.7482
-329.4	2.2573	2.1629	2.7475
-329.3	2.2576	2.1637	2.7468
-329.2	2.2578	2.1644	2.746
-329.1	2.2581	2.1652	2.7453
-329	2.2586	2.166	2.7446
-328.9	2.2589	2.1668	2.7439
-328.8	2.2594	2.1676	2.7432
-328.7	2.2598	2.1685	2.7427
-328.6	2.2603	2.1693	2.7422
-328.5	2.2608	2.1702	2.7417
-328.4	2.2613	2.171	2.7412
-328.3	2.2618	2.1719	2.7408
-328.2	2.2623	2.1728	2.7405
-328.1	2.2629	2.1736	2.7402
-328	2.2635	2.1745	2.7399
-327.9	2.2642	2.1754	2.7397
-327.8	2.2649	2.1763	2.7396
-327.7	2.2656	2.1772	2.7395
-327.6	2.2663	2.1781	2.7394
-327.5	2.2669	2.179	2.7394
-327.4	2.2678	2.18	2.7395
-327.3	2.2687	2.1809	2.7396
-327.2	2.2694	2.1818	2.7397
-327.1	2.2701	2.1827	2.7399
-327	2.2709	2.1836	2.7401
-326.9	2.2718	2.1845	2.7404
-326.8	2.2729	2.1854	2.7407
-326.7	2.2738	2.1863	2.741
-326.6	2.2746	2.1872	2.7413
-326.5	2.2755	2.1881	2.7417
-326.4	2.2764	2.1889	2.742
-326.3	2.2772	2.1898	2.7424
-326.2	2.2779	2.1907	2.7429
-326.1	2.279	2.1916	2.7433
-326	2.2803	2.1925	2.7438
-325.9	2.282	2.1933	2.7442
-325.8	2.2833	2.1942	2.7447
-325.7	2.2832	2.1951	2.7452
-325.6	2.2836	2.196	2.7457
-325.5	2.2855	2.1969	2.7463
-325.4	2.2878	2.1978	2.7468
-325.3	2.2893	2.1986	2.7474
-325.2	2.29	2.1995	2.7481
-325.1	2.2902	2.2004	2.7488
-325	2.2905	2.2013	2.7495
-324.9	2.2916	2.2021	2.7502
-324.8	2.2932	2.203	2.7511
-324.7	2.2945	2.2039	2.7519
-324.6	2.2948	2.2048	2.7528
-324.5	2.2943	2.2057	2.7537
-324.4	2.2943	2.2066	2.7546
-324.3	2.2945	2.2075	2.7555
-324.2	2.2942	2.2084	2.7565
-324.1	2.2938	2.2093	2.7575
-324	2.2937	2.2102	2.7585
-323.9	2.2937	2.2111	2.7596
-323.8	2.2932	2.212	2.7606
-323.7	2.2927	2.2129	2.7617
-323.6	2.2917	2.2137	2.7628
-323.5	2.2906	2.2145	2.7638
-323.4	2.2903	2.2153	2.765
-323.3	2.2893	2.2161	2.7662
-323.2	2.2879	2.2169	2.7673
-323.1	2.2873	2.2177	2.7685
-323	2.2876	2.2185	2.7697
-322.9	2.2876	2.2192	2.7708
-322.8	2.2865	2.22	2.772
-322.7	2.2849	2.2207	2.7731
-322.6	2.284	2.2214	2.7743
-322.5	2.2846	2.2221	2.7754
-322.4	2.2852	2.2228	2.7766
-322.3	2.2853	2.2235	2.7778
-322.2	2.2857	2.2242	2.779
-322.1	2.2863	2.2248	2.7802
-322	2.2872	2.2254	2.7813
-321.9	2.2877	2.226	2.7826
-321.8	2.2877	2.2265	2.7837
-321.7	2.288	2.227	2.7849
-321.6	2.2901	2.2276	2.786
-321.5	2.2924	2.2281	2.7871
-321.4	2.2934	2.2285	2.7881
-321.3	2.2936	2.229	2.7892
-321.2	2.2939	2.2295	2.7902
-321.1	2.2944	2.2299	2.7912
-321	2.2955	2.2303	2.7921
-320.9	2.2978	2.2307	2.793
-320.8	2.2997	2.2311	2.794
-320.7	2.3002	2.2315	2.7949
-320.6	2.3001	2.2318	2.7957
-320.5	2.3006	2.2322	2.7965
-320.4	2.3021	2.2325	2.7973
-320.3	2.3032	2.2328	2.7981
-320.2	2.3042	2.2331	2.7989
-320.1	2.3057	2.2334	2.7997
-320	2.3073	2.2338	2.8006
-319.9	2.3081	2.234	2.8013
-319.8	2.3085	2.2343	2.8021
-319.7	2.3092	2.2346	2.8029
-319.6	2.3101	2.2348	2.8037
-319.5	2.311	2.235	2.8046
-319.4	2.3122	2.2353	2.8056
-319.3	2.3127	2.2356	2.8067
-319.2	2.3137	2.2358	2.8077
-319.1	2.3154	2.2361	2.8088
-319	2.3163	2.2364	2.8099
-318.9	2.3161	2.2367	2.8109
-318.8	2.316	2.2369	2.8121
-318.7	2.3173	2.2371	2.8132
-318.6	2.3196	2.2374	2.8144
-318.5	2.3215	2.2376	2.8157
-318.4	2.322	2.2379	2.8169
-318.3	2.3223	2.2381	2.8182
-318.2	2.3233	2.2384	2.8194
-318.1	2.3242	2.2386	2.8205
-318	2.3255	2.2389	2.8218
-317.9	2.3263	2.2391	2.8229
-317.8	2.3271	2.2394	2.824
-317.7	2.3279	2.2397	2.825
-317.6	2.3287	2.24	2.8259
-317.5	2.3294	2.2403	2.8268
-317.4	2.3299	2.2407	2.8276
-317.3	2.3303	2.241	2.8283
-317.2	2.3305	2.2414	2.829
-317.1	2.3309	2.2417	2.8296
-317	2.3318	2.2421	2.8301
-316.9	2.3329	2.2425	2.8306
-316.8	2.3334	2.2428	2.8311
-316.7	2.3331	2.2432	2.8315
-316.6	2.3333	2.2435	2.8318
-316.5	2.334	2.2439	2.8321
-316.4	2.3348	2.2442	2.8324
-316.3	2.3356	2.2446	2.8327
-316.2	2.3363	2.2449	2.833
-316.1	2.3367	2.2453	2.8333
-316	2.337	2.2456	2.8337
-315.9	2.3371	2.246	2.834
-315.8	2.3375	2.2463	2.8344
-315.7	2.3381	2.2467	2.8349
-315.6	2.3384	2.2471	2.8354
-315.5	2.3385	2.2475	2.8359
-315.4	2.3387	2.2479	2.8364
-315.3	2.339	2.2483	2.8369
-315.2	2.3392	2.2487	2.8374
-315.1	2.3394	2.2492	2.8378
-315	2.3395	2.2496	2.8383
-314.9	2.3396	2.25	2.8387
-314.8	2.3402	2.2505	2.8391
-314.7	2.3408	2.2509	2.8394
-314.6	2.3411	2.2514	2.8398
-314.5	2.341	2.2518	2.84
-314.4	2.341	2.2523	2.8402
-314.3	2.3413	2.2527	2.8403
-314.2	2.3417	2.2532	2.8404
-314.1	2.342	2.2536	2.8403
-314	2.342	2.2541	2.8402
-313.9	2.342	2.2546	2.8399
-313.8	2.342	2.255	2.8396
-313.7	2.3421	2.2555	2.8392
-313.6	2.3421	2.256	2.8387
-313.5	2.3421	2.2565	2.8382
-313.4	2.3419	2.257	2.8376
-313.3	2.3417	2.2575	2.8369
-313.2	2.3415	2.258	2.8361
-313.1	2.3413	2.2585	2.8354
-313	2.3412	2.259	2.8346
-312.9	2.3409	2.2594	2.8338
-312.8	2.3408	2.2599	2.833
-312.7	2.3406	2.2604	2.8321
-312.6	2.3405	2.2608	2.8313
-312.5	2.3404	2.2612	2.8304
-312.4	2.3404	2.2617	2.8295
-312.3	2.3403	2.2621	2.8287
-312.2	2.3401	2.2625	2.8278
-312.1	2.3399	2.263	2.8269
-312	2.3399	2.2634	2.8261
-311.9	2.3399	2.2639	2.8252
-311.8	2.3398	2.2644	2.8243
-311.7	2.3397	2.2648	2.8234
-311.6	2.3396	2.2653	2.8224
-311.5	2.3394	2.2658	2.8214
-311.4	2.3393	2.2663	2.8204
-311.3	2.3393	2.2667	2.8194
-311.2	2.3392	2.2672	2.8184
-311.1	2.339	2.2677	2.8173
-311	2.3387	2.2682	2.8162
-310.9	2.3385	2.2687	2.8151
-310.8	2.3382	2.2692	2.814
-310.7	2.3381	2.2696	2.8128
-310.6	2.338	2.27	2.8116
-310.5	2.3378	2.2704	2.8104
-310.4	2.3375	2.2708	2.8093
-310.3	2.3374	2.2712	2.8082
-310.2	2.3372	2.2716	2.8071
-310.1	2.337	2.272	2.8061
-310	2.3368	2.2723	2.8051
-309.9	2.3367	2.2727	2.8042
-309.8	2.3364	2.273	2.8032
-309.7	2.3361	2.2733	2.8025
-309.6	2.3357	2.2737	2.8017
-309.5	2.3353	2.274	2.801
-309.4	2.335	2.2743	2.8003
-309.3	2.3346	2.2746	2.7997
-309.2	2.3343	2.2749	2.7992
-309.1	2.3339	2.2752	2.7987
-309	2.3336	2.2754	2.7982
-308.9	2.3331	2.2756	2.7978
-308.8	2.3327	2.2759	2.7974
-308.7	2.3324	2.2761	2.797
-308.6	2.3321	2.2762	2.7965
-308.5	2.3319	2.2763	2.7961
-308.4	2.3318	2.2765	2.7956
-308.3	2.3314	2.2766	2.795
-308.2	2.331	2.2767	2.7944
-308.1	2.3308	2.2768	2.7938
-308	2.3308	2.2769	2.7931
-307.9	2.3306	2.2769	2.7923
-307.8	2.3304	2.277	2.7914
-307.7	2.3303	2.277	2.7905
-307.6	2.3302	2.277	2.7894
-307.5	2.3301	2.277	2.7883
-307.4	2.3301	2.277	2.7872
-307.3	2.33	2.277	2.7859
-307.2	2.3297	2.2769	2.7846
-307.1	2.3295	2.2768	2.7832
-307	2.3293	2.2767	2.7818
-306.9	2.3292	2.2765	2.7803
-306.8	2.3292	2.2762	2.7788
-306.7	2.3291	2.276	2.7773
-306.6	2.329	2.2757	2.7759
-306.5	2.3289	2.2754	2.7745
-306.4	2.3287	2.2751	2.773
-306.3	2.3285	2.2748	2.7716
-306.2	2.3284	2.2744	2.7702
-306.1	2.3284	2.274	2.7688
-306	2.3283	2.2736	2.7675
-305.9	2.328	2.2733	2.7662
-305.8	2.3278	2.2729	2.7649
-305.7	2.3277	2.2725	2.7638
-305.6	2.3275	2.2721	2.7627
-305.5	2.3273	2.2717	2.7615
-305.4	2.3272	2.2713	2.7605
-305.3	2.3269	2.2708	2.7595
-305.2	2.3267	2.2703	2.7586
-305.1	2.3265	2.2698	2.7577
-305	2.3263	2.2693	2.7568
-304.9	2.326	2.2688	2.756
-304.8	2.3258	2.2682	2.7551
-304.7	2.3256	2.2677	2.7543
-304.6	2.3254	2.2671	2.7535
-304.5	2.3252	2.2666	2.7528
-304.4	2.325	2.2661	2.752
-304.3	2.3246	2.2655	2.7513
-304.2	2.3245	2.265	2.7506
-304.1	2.3244	2.2645	2.7498
-304	2.3243	2.264	2.7491
-303.9	2.3241	2.2634	2.7483
-303.8	2.3241	2.2628	2.7476
-303.7	2.324	2.2623	2.7469
-303.6	2.3238	2.2617	2.7462
-303.5	2.3236	2.261	2.7455
-303.4	2.3234	2.2604	2.7449
-303.3	2.3232	2.2597	2.7442
-303.2	2.323	2.2591	2.7436
-303.1	2.3229	2.2584	2.743
-303	2.3228	2.2577	2.7425
-302.9	2.3226	2.257	2.7419
-302.8	2.3224	2.2562	2.7413
-302.7	2.3222	2.2555	2.7408
-302.6	2.322	2.2549	2.7404
-302.5	2.3218	2.2541	2.7399
-302.4	2.3216	2.2534	2.7395
-302.3	2.3214	2.2527	2.7391
-302.2	2.3213	2.252	2.7388
-302.1	2.321	2.2513	2.7385
-302	2.3207	2.2506	2.7383
-301.9	2.3204	2.2499	2.7381
-301.8	2.32	2.2491	2.738
-301.7	2.3197	2.2484	2.7379
-301.6	2.3193	2.2477	2.7378
-301.5	2.3188	2.2469	2.7378
-301.4	2.3183	2.2462	2.738
-301.3	2.3178	2.2454	2.738
-301.2	2.3174	2.2447	2.7382
-301.1	2.317	2.2439	2.7384
-301	2.3165	2.2432	2.7387
-300.9	2.3161	2.2425	2.739
-300.8	2.3157	2.2419	2.7394
-300.7	2.3152	2.2412	2.7398
-300.6	2.3147	2.2406	2.7403
-300.5	2.3143	2.2399	2.7408
-300.4	2.3139	2.2393	2.7413
-300.3	2.3134	2.2386	2.7418
-300.2	2.3132	2.2379	2.7424
-300.1	2.3127	2.2372	2.7429
-300	2.3123	2.2365	2.7435
-299.9	2.3119	2.2359	2.7441
-299.8	2.3114	2.2352	2.7447
-299.7	2.3109	2.2345	2.7453
-299.6	2.3103	2.2338	2.7458
-299.5	2.3099	2.2332	2.7465
-299.4	2.3093	2.2326	2.747
-299.3	2.3089	2.232	2.7476
-299.2	2.3084	2.2314	2.7481
-299.1	2.3077	2.2308	2.7485
-299	2.3071	2.2302	2.7489
-298.9	2.3065	2.2297	2.7493
-298.8	2.306	2.2291	2.7497
-298.7	2.3055	2.2285	2.7501
-298.6	2.3049	2.2279	2.7504
-298.5	2.3044	2.2273	2.7508
-298.4	2.3038	2.2267	2.7511
-298.3	2.3031	2.2262	2.7515
-298.2	2.3025	2.2256	2.7519
-298.1	2.3018	2.225	2.7522
-298	2.3012	2.2244	2.7526
-297.9	2.3006	2.2238	2.753
-297.8	2.2999	2.2233	2.7534
-297.7	2.2992	2.2228	2.7538
-297.6	2.2985	2.2223	2.7543
-297.5	2.2978	2.2218	2.7548
-297.4	2.2971	2.2213	2.7554
-297.3	2.2965	2.2209	2.7559
-297.2	2.2958	2.2204	2.7566
-297.1	2.2951	2.2199	2.7572
-297	2.2944	2.2195	2.7579
-296.9	2.2937	2.219	2.7586
-296.8	2.2931	2.2185	2.7594
-296.7	2.2924	2.218	2.7602
-296.6	2.2917	2.2175	2.761
-296.5	2.291	2.217	2.7618
-296.4	2.2904	2.2166	2.7627
-296.3	2.2895	2.2161	2.7636
-296.2	2.2889	2.2157	2.7645
-296.1	2.288	2.2152	2.7655
-296	2.2872	2.2149	2.7665
-295.9	2.2863	2.2145	2.7675
-295.8	2.2856	2.2141	2.7685
-295.7	2.2848	2.2137	2.7696
-295.6	2.284	2.2133	2.7706
-295.5	2.2832	2.213	2.7717
-295.4	2.2824	2.2126	2.7728
-295.3	2.2816	2.2122	2.7738
-295.2	2.2808	2.2119	2.7749
-295.1	2.28	2.2115	2.776
-295	2.2793	2.2111	2.7771
-294.9	2.2786	2.2107	2.7783
-294.8	2.2779	2.2103	2.7794
-294.7	2.2772	2.2099	2.7806
-294.6	2.2764	2.2095	2.7818
-294.5	2.2756	2.2091	2.7831
-294.4	2.2749	2.2087	2.7843
-294.3	2.2741	2.2084	2.7855
-294.2	2.2734	2.208	2.7867
-294.1	2.2727	2.2076	2.788
-294	2.2719	2.2072	2.7892
-293.9	2.2713	2.2069	2.7903
-293.8	2.2704	2.2065	2.7914
-293.7	2.2696	2.2061	2.7925
-293.6	2.2689	2.2057	2.7935
-293.5	2.2681	2.2053	2.7945
-293.4	2.2674	2.2049	2.7955
-293.3	2.2666	2.2045	2.7964
-293.2	2.2659	2.2041	2.7973
-293.1	2.2651	2.2036	2.7982
-293	2.2644	2.2032	2.7989
-292.9	2.2637	2.2027	2.7997
-292.8	2.2629	2.2022	2.8004
-292.7	2.2623	2.2018	2.801
-292.6	2.2616	2.2013	2.8017
-292.5	2.2609	2.2009	2.8023
-292.4	2.2601	2.2005	2.8028
-292.3	2.2593	2.2001	2.8034
-292.2	2.2586	2.1996	2.8039
-292.1	2.2579	2.1992	2.8044
-292	2.2572	2.1988	2.8049
-291.9	2.2565	2.1983	2.8054
-291.8	2.2559	2.1979	2.8059
-291.7	2.2552	2.1975	2.8065
-291.6	2.2545	2.197	2.8071
-291.5	2.2538	2.1965	2.8077
-291.4	2.2532	2.196	2.8083
-291.3	2.2526	2.1956	2.8089
-291.2	2.2519	2.1951	2.8097
-291.1	2.2513	2.1946	2.8104
-291	2.2505	2.1942	2.8112
-290.9	2.2498	2.1938	2.8121
-290.8	2.2491	2.1933	2.8129
-290.7	2.2483	2.1928	2.8137
-290.6	2.2475	2.1923	2.8145
-290.5	2.2467	2.1918	2.8154
-290.4	2.246	2.1913	2.8161
-290.3	2.2452	2.1909	2.8169
-290.2	2.2445	2.1904	2.8176
-290.1	2.2437	2.1899	2.8183
