vKurbelwinkel	p_Zyl_1	p_Ein	p_Aus
[KWnZOT]	[bar]	[bar]	[bar]
-360	2.8329	2.2854	2.8018
-359.9	2.8277	2.2856	2.8001
-359.8	2.8225	2.2858	2.7984
-359.7	2.8173	2.286	2.7967
-359.6	2.812	2.2862	2.7951
-359.5	2.8067	2.2864	2.7935
-359.4	2.8014	2.2865	2.7919
-359.3	2.796	2.2867	2.7903
-359.2	2.7906	2.2869	2.7888
-359.1	2.7852	2.287	2.7873
-359	2.7797	2.2872	2.7858
-358.9	2.7742	2.2873	2.7843
-358.8	2.7687	2.2874	2.7828
-358.7	2.7632	2.2876	2.7814
-358.6	2.7576	2.2877	2.7799
-358.5	2.752	2.2878	2.7785
-358.4	2.7463	2.2879	2.7771
-358.3	2.7406	2.288	2.7758
-358.2	2.7349	2.2881	2.7744
-358.1	2.7292	2.2882	2.7731
-358	2.7234	2.2883	2.7718
-357.9	2.7177	2.2885	2.7704
-357.8	2.7118	2.2886	2.7691
-357.7	2.7058	2.2887	2.7679
-357.6	2.6998	2.2888	2.7667
-357.5	2.6938	2.2889	2.7654
-357.4	2.6877	2.289	2.7643
-357.3	2.6818	2.289	2.7631
-357.2	2.6757	2.2891	2.7619
-357.1	2.6697	2.2891	2.7608
-357	2.6635	2.2891	2.7598
-356.9	2.6574	2.2891	2.7587
-356.8	2.6511	2.289	2.7576
-356.7	2.645	2.289	2.7566
-356.6	2.6388	2.2889	2.7556
-356.5	2.6326	2.2888	2.7546
-356.4	2.6264	2.2887	2.7537
-356.3	2.6203	2.2886	2.7527
-356.2	2.6142	2.2885	2.7518
-356.1	2.6079	2.2883	2.7509
-356	2.6019	2.2881	2.7501
-355.9	2.5958	2.2879	2.7492
-355.8	2.5897	2.2877	2.7484
-355.7	2.5836	2.2874	2.7476
-355.6	2.5777	2.2871	2.7469
-355.5	2.5718	2.2869	2.7462
-355.4	2.5658	2.2865	2.7456
-355.3	2.5599	2.2862	2.745
-355.2	2.5541	2.2858	2.7444
-355.1	2.5484	2.2854	2.7438
-355	2.5427	2.285	2.7432
-354.9	2.5371	2.2846	2.7427
-354.8	2.5316	2.2842	2.7422
-354.7	2.5262	2.2838	2.7417
-354.6	2.5208	2.2833	2.7412
-354.5	2.5155	2.2828	2.7408
-354.4	2.5102	2.2823	2.7405
-354.3	2.5051	2.2819	2.7402
-354.2	2.5	2.2813	2.7398
-354.1	2.495	2.2808	2.7396
-354	2.4902	2.2802	2.7394
-353.9	2.4854	2.2795	2.7392
-353.8	2.4806	2.2789	2.739
-353.7	2.476	2.2783	2.7389
-353.6	2.4714	2.2776	2.7387
-353.5	2.4671	2.2769	2.7386
-353.4	2.4628	2.2761	2.7385
-353.3	2.4587	2.2754	2.7384
-353.2	2.4546	2.2747	2.7384
-353.1	2.4507	2.274	2.7384
-353	2.4468	2.2732	2.7384
-352.9	2.4431	2.2725	2.7384
-352.8	2.4396	2.2717	2.7384
-352.7	2.4361	2.2709	2.7385
-352.6	2.4327	2.2701	2.7386
-352.5	2.4296	2.2693	2.7387
-352.4	2.4265	2.2685	2.7389
-352.3	2.4235	2.2676	2.7391
-352.2	2.4207	2.2667	2.7393
-352.1	2.418	2.2659	2.7396
-352	2.4154	2.265	2.7399
-351.9	2.413	2.2641	2.7404
-351.8	2.4105	2.2632	2.7408
-351.7	2.4084	2.2623	2.7413
-351.6	2.4063	2.2615	2.7418
-351.5	2.4043	2.2606	2.7425
-351.4	2.4025	2.2597	2.7431
-351.3	2.4009	2.2589	2.7438
-351.2	2.3994	2.258	2.7444
-351.1	2.398	2.2571	2.7452
-351	2.3967	2.2562	2.746
-350.9	2.3954	2.2554	2.7468
-350.8	2.3943	2.2545	2.7477
-350.7	2.3933	2.2535	2.7487
-350.6	2.3925	2.2526	2.7497
-350.5	2.3916	2.2517	2.7507
-350.4	2.3909	2.2508	2.7518
-350.3	2.3903	2.2498	2.7528
-350.2	2.3898	2.2488	2.7539
-350.1	2.3894	2.2479	2.7551
-350	2.389	2.2469	2.7563
-349.9	2.3887	2.2459	2.7575
-349.8	2.3886	2.245	2.7588
-349.7	2.3884	2.244	2.76
-349.6	2.3884	2.243	2.7613
-349.5	2.3884	2.2421	2.7626
-349.4	2.3884	2.2411	2.764
-349.3	2.3884	2.2401	2.7653
-349.2	2.3885	2.2392	2.7667
-349.1	2.3886	2.2382	2.768
-349	2.3887	2.2372	2.7694
-348.9	2.3889	2.2361	2.7707
-348.8	2.3891	2.2351	2.7721
-348.7	2.3894	2.2341	2.7735
-348.6	2.3896	2.233	2.7749
-348.5	2.3898	2.232	2.7763
-348.4	2.39	2.231	2.7777
-348.3	2.3902	2.23	2.7791
-348.2	2.3905	2.229	2.7806
-348.1	2.3907	2.228	2.7821
-348	2.3909	2.227	2.7835
-347.9	2.3912	2.2261	2.785
-347.8	2.3914	2.2251	2.7864
-347.7	2.3917	2.2242	2.7879
-347.6	2.3919	2.2232	2.7893
-347.5	2.3921	2.2222	2.7908
-347.4	2.3923	2.2213	2.7923
-347.3	2.3925	2.2203	2.7937
-347.2	2.3926	2.2193	2.7951
-347.1	2.3927	2.2183	2.7966
-347	2.3928	2.2173	2.798
-346.9	2.3929	2.2163	2.7994
-346.8	2.393	2.2153	2.8008
-346.7	2.3932	2.2144	2.8023
-346.6	2.3932	2.2134	2.8036
-346.5	2.3932	2.2125	2.805
-346.4	2.3933	2.2116	2.8064
-346.3	2.3933	2.2107	2.8078
-346.2	2.3933	2.2099	2.8092
-346.1	2.3932	2.209	2.8106
-346	2.393	2.2082	2.8118
-345.9	2.393	2.2074	2.8132
-345.8	2.3928	2.2066	2.8145
-345.7	2.3926	2.2058	2.8158
-345.6	2.3925	2.205	2.817
-345.5	2.3923	2.2043	2.8183
-345.4	2.3922	2.2035	2.8195
-345.3	2.392	2.2028	2.8207
-345.2	2.3918	2.2021	2.8219
-345.1	2.3917	2.2014	2.8231
-345	2.3916	2.2007	2.8242
-344.9	2.3915	2.2001	2.8254
-344.8	2.3913	2.1995	2.8266
-344.7	2.3914	2.1989	2.8276
-344.6	2.3913	2.1983	2.8287
-344.5	2.3913	2.1977	2.8298
-344.4	2.3912	2.1971	2.8309
-344.3	2.3912	2.1966	2.832
-344.2	2.3912	2.196	2.833
-344.1	2.3912	2.1954	2.8341
-344	2.3913	2.1949	2.8351
-343.9	2.3913	2.1943	2.8361
-343.8	2.3913	2.1937	2.8371
-343.7	2.3913	2.1932	2.8382
-343.6	2.3914	2.1927	2.8393
-343.5	2.3913	2.1921	2.8403
-343.4	2.3914	2.1916	2.8413
-343.3	2.3914	2.191	2.8422
-343.2	2.3913	2.1904	2.8432
-343.1	2.3913	2.1899	2.8442
-343	2.3912	2.1894	2.8451
-342.9	2.3912	2.1888	2.8461
-342.8	2.391	2.1883	2.847
-342.7	2.3907	2.1877	2.8479
-342.6	2.3904	2.1872	2.8487
-342.5	2.39	2.1866	2.8496
-342.4	2.3896	2.1861	2.8504
-342.3	2.3891	2.1855	2.8512
-342.2	2.3884	2.185	2.8519
-342.1	2.3877	2.1844	2.8527
-342	2.3869	2.1839	2.8533
-341.9	2.3862	2.1834	2.854
-341.8	2.3854	2.1828	2.8546
-341.7	2.3846	2.1823	2.8552
-341.6	2.3837	2.1818	2.8558
-341.5	2.3827	2.1813	2.8564
-341.4	2.3816	2.1808	2.8569
-341.3	2.3806	2.1803	2.8574
-341.2	2.3795	2.1798	2.8579
-341.1	2.3783	2.1793	2.8583
-341	2.3772	2.1788	2.8587
-340.9	2.3761	2.1783	2.8591
-340.8	2.3748	2.1778	2.8593
-340.7	2.3736	2.1773	2.8596
-340.6	2.3722	2.1768	2.8598
-340.5	2.3709	2.1764	2.8601
-340.4	2.3695	2.1759	2.8603
-340.3	2.3681	2.1755	2.8605
-340.2	2.3667	2.175	2.8606
-340.1	2.3653	2.1746	2.8607
-340	2.3638	2.1742	2.8608
-339.9	2.3623	2.1738	2.861
-339.8	2.3609	2.1734	2.861
-339.7	2.3593	2.173	2.8611
-339.6	2.3577	2.1726	2.861
-339.5	2.3563	2.1722	2.861
-339.4	2.3547	2.1719	2.8609
-339.3	2.3532	2.1715	2.8608
-339.2	2.3517	2.1711	2.8606
-339.1	2.3502	2.1707	2.8604
-339	2.3486	2.1704	2.8602
-338.9	2.347	2.17	2.8599
-338.8	2.3454	2.1697	2.8595
-338.7	2.3438	2.1693	2.8591
-338.6	2.3423	2.169	2.8587
-338.5	2.3407	2.1687	2.8583
-338.4	2.3392	2.1684	2.8577
-338.3	2.3375	2.1681	2.8572
-338.2	2.336	2.1678	2.8566
-338.1	2.3345	2.1675	2.856
-338	2.333	2.1673	2.8554
-337.9	2.3314	2.167	2.8548
-337.8	2.3299	2.1667	2.8541
-337.7	2.3284	2.1664	2.8534
-337.6	2.3268	2.1662	2.8526
-337.5	2.3253	2.1659	2.8519
-337.4	2.3239	2.1656	2.8511
-337.3	2.3223	2.1653	2.8502
-337.2	2.3209	2.1649	2.8494
-337.1	2.3195	2.1646	2.8485
-337	2.3181	2.1643	2.8476
-336.9	2.3167	2.164	2.8466
-336.8	2.3153	2.1637	2.8456
-336.7	2.314	2.1633	2.8447
-336.6	2.3126	2.163	2.8437
-336.5	2.3114	2.1627	2.8428
-336.4	2.31	2.1624	2.8418
-336.3	2.3087	2.162	2.8408
-336.2	2.3074	2.1617	2.8397
-336.1	2.306	2.1614	2.8387
-336	2.3048	2.161	2.8376
-335.9	2.3036	2.1607	2.8365
-335.8	2.3024	2.1603	2.8354
-335.7	2.3011	2.16	2.8342
-335.6	2.3	2.1596	2.8329
-335.5	2.2988	2.1593	2.8317
-335.4	2.2976	2.1589	2.8305
-335.3	2.2965	2.1587	2.8292
-335.2	2.2953	2.1584	2.8279
-335.1	2.2942	2.1581	2.8266
-335	2.293	2.1578	2.8252
-334.9	2.292	2.1576	2.8238
-334.8	2.2911	2.1574	2.8224
-334.7	2.2901	2.1572	2.821
-334.6	2.289	2.157	2.8196
-334.5	2.2879	2.1568	2.8181
-334.4	2.2871	2.1566	2.8166
-334.3	2.2861	2.1565	2.8151
-334.2	2.2852	2.1563	2.8137
-334.1	2.2843	2.1562	2.8122
-334	2.2833	2.156	2.8106
-333.9	2.2824	2.1559	2.8091
-333.8	2.2816	2.1558	2.8076
-333.7	2.2809	2.1557	2.8061
-333.6	2.2801	2.1556	2.8047
-333.5	2.2794	2.1556	2.8032
-333.4	2.2787	2.1555	2.8017
-333.3	2.278	2.1555	2.8003
-333.2	2.2774	2.1554	2.7989
-333.1	2.2768	2.1554	2.7975
-333	2.2762	2.1554	2.7961
-332.9	2.2755	2.1554	2.7948
-332.8	2.2749	2.1555	2.7935
-332.7	2.2744	2.1555	2.7922
-332.6	2.2739	2.1555	2.791
-332.5	2.2733	2.1556	2.7897
-332.4	2.2728	2.1557	2.7885
-332.3	2.2722	2.1558	2.7874
-332.2	2.2718	2.156	2.7862
-332.1	2.2713	2.1561	2.7851
-332	2.2708	2.1563	2.7841
-331.9	2.2705	2.1565	2.783
-331.8	2.27	2.1568	2.782
-331.7	2.2696	2.1571	2.781
-331.6	2.2692	2.1574	2.78
-331.5	2.2689	2.1578	2.7791
-331.4	2.2686	2.1582	2.7781
-331.3	2.2683	2.1586	2.7771
-331.2	2.268	2.1591	2.7762
-331.1	2.2678	2.1595	2.7753
-331	2.2676	2.16	2.7744
-330.9	2.2676	2.1605	2.7735
-330.8	2.2675	2.1611	2.7726
-330.7	2.2673	2.1616	2.7718
-330.6	2.2673	2.1622	2.7709
-330.5	2.2674	2.1628	2.7701
-330.4	2.2675	2.1634	2.7692
-330.3	2.2675	2.164	2.7684
-330.2	2.2675	2.1646	2.7675
-330.1	2.2677	2.1653	2.7668
-330	2.2678	2.1659	2.7659
-329.9	2.2681	2.1666	2.7652
-329.8	2.2684	2.1673	2.7644
-329.7	2.2688	2.168	2.7637
-329.6	2.2691	2.1687	2.763
-329.5	2.2695	2.1694	2.7623
-329.4	2.2697	2.1702	2.7617
-329.3	2.27	2.1709	2.761
-329.2	2.2703	2.1717	2.7605
-329.1	2.2706	2.1724	2.7599
-329	2.2709	2.1732	2.7593
-328.9	2.2714	2.1739	2.7587
-328.8	2.272	2.1747	2.7582
-328.7	2.2724	2.1755	2.7577
-328.6	2.2729	2.1763	2.7573
-328.5	2.2735	2.1771	2.7568
-328.4	2.2742	2.178	2.7564
-328.3	2.2748	2.1788	2.7559
-328.2	2.2755	2.1797	2.7555
-328.1	2.2761	2.1805	2.7551
-328	2.2768	2.1814	2.7546
-327.9	2.2776	2.1822	2.7542
-327.8	2.2782	2.1831	2.7538
-327.7	2.279	2.184	2.7533
-327.6	2.2797	2.1849	2.7529
-327.5	2.2806	2.1857	2.7525
-327.4	2.2812	2.1866	2.752
-327.3	2.2821	2.1875	2.7516
-327.2	2.283	2.1884	2.7512
-327.1	2.2841	2.1893	2.7508
-327	2.2854	2.1901	2.7504
-326.9	2.2861	2.191	2.75
-326.8	2.2857	2.1919	2.7495
-326.7	2.2863	2.1927	2.7492
-326.6	2.2885	2.1936	2.7488
-326.5	2.2903	2.1945	2.7484
-326.4	2.291	2.1954	2.7481
-326.3	2.2913	2.1962	2.7477
-326.2	2.2919	2.1971	2.7475
-326.1	2.2929	2.198	2.7472
-326	2.2941	2.1988	2.747
-325.9	2.2951	2.1997	2.7469
-325.8	2.2958	2.2006	2.7467
-325.7	2.2962	2.2015	2.7467
-325.6	2.2965	2.2024	2.7467
-325.5	2.2964	2.2033	2.7467
-325.4	2.2963	2.2042	2.7468
-325.3	2.2966	2.2052	2.7469
-325.2	2.2966	2.2061	2.7471
-325.1	2.2969	2.207	2.7472
-325	2.2971	2.208	2.7474
-324.9	2.2975	2.209	2.7477
-324.8	2.2974	2.2099	2.748
-324.7	2.2969	2.2109	2.7483
-324.6	2.2967	2.2119	2.7487
-324.5	2.2969	2.2128	2.7491
-324.4	2.2968	2.2138	2.7495
-324.3	2.2965	2.2147	2.75
-324.2	2.2966	2.2157	2.7505
-324.1	2.297	2.2166	2.751
-324	2.2971	2.2175	2.7515
-323.9	2.2968	2.2184	2.7521
-323.8	2.2965	2.2193	2.7526
-323.7	2.2968	2.2202	2.7532
-323.6	2.2979	2.2211	2.7538
-323.5	2.2986	2.222	2.7546
-323.4	2.2989	2.2229	2.7553
-323.3	2.2996	2.2237	2.7559
-323.2	2.3003	2.2245	2.7566
-323.1	2.3009	2.2253	2.7574
-323	2.3013	2.226	2.7581
-322.9	2.3016	2.2267	2.7589
-322.8	2.3024	2.2274	2.7598
-322.7	2.3047	2.2282	2.7606
-322.6	2.3068	2.2288	2.7614
-322.5	2.3073	2.2295	2.7622
-322.4	2.3074	2.2301	2.763
-322.3	2.3081	2.2307	2.7638
-322.2	2.3092	2.2313	2.7646
-322.1	2.3105	2.2319	2.7655
-322	2.3119	2.2325	2.7663
-321.9	2.313	2.233	2.7671
-321.8	2.3139	2.2336	2.768
-321.7	2.3146	2.2341	2.7688
-321.6	2.3153	2.2347	2.7697
-321.5	2.3161	2.2352	2.7705
-321.4	2.3172	2.2357	2.7713
-321.3	2.3186	2.2361	2.7722
-321.2	2.3198	2.2366	2.773
-321.1	2.321	2.2371	2.7739
-321	2.3219	2.2375	2.7748
-320.9	2.3227	2.2379	2.7757
-320.8	2.3234	2.2383	2.7766
-320.7	2.3242	2.2387	2.7776
-320.6	2.3254	2.2391	2.7787
-320.5	2.3265	2.2394	2.7799
-320.4	2.3272	2.2398	2.781
-320.3	2.3283	2.2402	2.7822
-320.2	2.3296	2.2405	2.7834
-320.1	2.3305	2.2409	2.7846
-320	2.3309	2.2412	2.7858
-319.9	2.3316	2.2415	2.7871
-319.8	2.3332	2.2418	2.7884
-319.7	2.3351	2.242	2.7896
-319.6	2.3366	2.2423	2.7909
-319.5	2.337	2.2425	2.7923
-319.4	2.3377	2.2427	2.7934
-319.3	2.3388	2.243	2.7946
-319.2	2.3399	2.2432	2.7958
-319.1	2.3407	2.2434	2.797
-319	2.3418	2.2437	2.798
-318.9	2.3429	2.244	2.799
-318.8	2.3439	2.2442	2.7998
-318.7	2.3448	2.2446	2.8006
-318.6	2.3458	2.2449	2.8013
-318.5	2.3465	2.2452	2.8019
-318.4	2.347	2.2455	2.8025
-318.3	2.3476	2.2459	2.8029
-318.2	2.3485	2.2462	2.8032
-318.1	2.3496	2.2465	2.8036
-318	2.3508	2.2469	2.8038
-317.9	2.3513	2.2472	2.8039
-317.8	2.3517	2.2475	2.8041
-317.7	2.3522	2.2478	2.8042
-317.6	2.3529	2.2481	2.8042
-317.5	2.3538	2.2484	2.8043
-317.4	2.3548	2.2487	2.8044
-317.3	2.3556	2.249	2.8046
-317.2	2.3562	2.2493	2.8048
-317.1	2.3566	2.2496	2.8051
-317	2.3571	2.25	2.8054
-316.9	2.3576	2.2503	2.8059
-316.8	2.3581	2.2507	2.8064
-316.7	2.3584	2.251	2.8071
-316.6	2.3588	2.2514	2.8078
-316.5	2.3592	2.2517	2.8085
-316.4	2.3596	2.252	2.8093
-316.3	2.36	2.2524	2.8101
-316.2	2.3603	2.2527	2.811
-316.1	2.3606	2.2531	2.8119
-316	2.3612	2.2534	2.8129
-315.9	2.3619	2.2538	2.8139
-315.8	2.3624	2.2542	2.8149
-315.7	2.3627	2.2545	2.8159
-315.6	2.3629	2.2549	2.817
-315.5	2.3632	2.2553	2.8179
-315.4	2.3636	2.2556	2.8188
-315.3	2.3642	2.256	2.8197
-315.2	2.3646	2.2564	2.8205
-315.1	2.3647	2.2568	2.8212
-315	2.3651	2.2573	2.8219
-314.9	2.3653	2.2577	2.8224
-314.8	2.3656	2.2581	2.8229
-314.7	2.3658	2.2586	2.8233
-314.6	2.366	2.259	2.8237
-314.5	2.3661	2.2594	2.824
-314.4	2.3662	2.2599	2.8243
-314.3	2.3662	2.2603	2.8245
-314.2	2.366	2.2608	2.8246
-314.1	2.3659	2.2612	2.8248
-314	2.3658	2.2616	2.8248
-313.9	2.3657	2.262	2.8249
-313.8	2.3658	2.2625	2.8251
-313.7	2.3659	2.2629	2.8252
-313.6	2.3659	2.2633	2.8252
-313.5	2.3659	2.2638	2.8253
-313.4	2.3658	2.2642	2.8254
-313.3	2.3656	2.2647	2.8255
-313.2	2.3654	2.2652	2.8256
-313.1	2.3653	2.2656	2.8256
-313	2.3652	2.2661	2.8256
-312.9	2.3651	2.2665	2.8256
-312.8	2.3649	2.267	2.8254
-312.7	2.3646	2.2675	2.8254
-312.6	2.3644	2.2679	2.8252
-312.5	2.3642	2.2684	2.8251
-312.4	2.3641	2.2689	2.8249
-312.3	2.3641	2.2695	2.8247
-312.2	2.3639	2.27	2.8245
-312.1	2.3638	2.2705	2.8242
-312	2.3637	2.271	2.8238
-311.9	2.3635	2.2715	2.8233
-311.8	2.3633	2.272	2.8228
-311.7	2.3631	2.2725	2.8222
-311.6	2.363	2.2729	2.8216
-311.5	2.3629	2.2734	2.821
-311.4	2.3628	2.2738	2.8202
-311.3	2.3628	2.2743	2.8196
-311.2	2.3626	2.2747	2.8189
-311.1	2.3625	2.2751	2.8182
-311	2.3624	2.2756	2.8175
-310.9	2.3623	2.276	2.8169
-310.8	2.3621	2.2764	2.8163
-310.7	2.3619	2.2768	2.8158
-310.6	2.3618	2.2772	2.8152
-310.5	2.3615	2.2776	2.8146
-310.4	2.3613	2.278	2.8141
-310.3	2.3609	2.2784	2.8137
-310.2	2.3605	2.2788	2.8133
-310.1	2.3603	2.2791	2.8129
-310	2.3599	2.2795	2.8125
-309.9	2.3597	2.2798	2.8122
-309.8	2.3595	2.2801	2.8119
-309.7	2.3593	2.2804	2.8115
-309.6	2.3589	2.2807	2.8111
-309.5	2.3586	2.281	2.8107
-309.4	2.3582	2.2813	2.8103
-309.3	2.3578	2.2816	2.8098
-309.2	2.3575	2.2818	2.8092
-309.1	2.3571	2.2821	2.8086
-309	2.3569	2.2823	2.808
-308.9	2.3566	2.2826	2.8073
-308.8	2.3563	2.2828	2.8065
-308.7	2.356	2.283	2.8057
-308.6	2.3557	2.2832	2.8048
-308.5	2.3554	2.2835	2.804
-308.4	2.3552	2.2836	2.803
-308.3	2.3549	2.2838	2.802
-308.2	2.3546	2.2839	2.801
-308.1	2.3544	2.284	2.7999
-308	2.3541	2.2841	2.7987
-307.9	2.3539	2.2841	2.7976
-307.8	2.3536	2.2841	2.7965
-307.7	2.3534	2.2841	2.7954
-307.6	2.3533	2.2841	2.7944
-307.5	2.3532	2.284	2.7934
-307.4	2.353	2.2839	2.7924
-307.3	2.3528	2.2838	2.7915
-307.2	2.3528	2.2837	2.7906
-307.1	2.3528	2.2835	2.7898
-307	2.3526	2.2834	2.789
-306.9	2.3525	2.2832	2.7883
-306.8	2.3524	2.2829	2.7876
-306.7	2.3523	2.2827	2.787
-306.6	2.3522	2.2824	2.7863
-306.5	2.3519	2.2822	2.7858
-306.4	2.3518	2.2818	2.7852
-306.3	2.3517	2.2815	2.7847
-306.2	2.3516	2.2812	2.7842
-306.1	2.3514	2.2808	2.7836
-306	2.3513	2.2805	2.7831
-305.9	2.3512	2.2801	2.7824
-305.8	2.351	2.2797	2.7818
-305.7	2.3508	2.2793	2.7811
-305.6	2.3506	2.2789	2.7805
-305.5	2.3503	2.2785	2.7797
-305.4	2.3501	2.2781	2.779
-305.3	2.3499	2.2777	2.7782
-305.2	2.3497	2.2773	2.7774
-305.1	2.3495	2.2768	2.7765
-305	2.3494	2.2763	2.7756
-304.9	2.3492	2.2759	2.7748
-304.8	2.349	2.2754	2.7738
-304.7	2.3488	2.2749	2.7728
-304.6	2.3486	2.2744	2.7718
-304.5	2.3483	2.2739	2.7708
-304.4	2.3481	2.2733	2.7698
-304.3	2.3479	2.2728	2.7687
-304.2	2.3477	2.2722	2.7677
-304.1	2.3474	2.2717	2.7666
-304	2.3473	2.2711	2.7655
-303.9	2.347	2.2705	2.7644
-303.8	2.3467	2.2699	2.7634
-303.7	2.3465	2.2692	2.7624
-303.6	2.3463	2.2686	2.7614
-303.5	2.3462	2.2679	2.7604
-303.4	2.3459	2.2672	2.7594
-303.3	2.3458	2.2666	2.7585
-303.2	2.3456	2.2659	2.7575
-303.1	2.3454	2.2651	2.7565
-303	2.3451	2.2645	2.7556
-302.9	2.3448	2.2637	2.7547
-302.8	2.3445	2.2631	2.7539
-302.7	2.3444	2.2623	2.753
-302.6	2.3442	2.2616	2.7522
-302.5	2.3438	2.2609	2.7514
-302.4	2.3437	2.2602	2.7506
-302.3	2.3434	2.2595	2.7499
-302.2	2.3431	2.2588	2.7492
-302.1	2.3428	2.258	2.7486
-302	2.3425	2.2573	2.748
-301.9	2.3421	2.2566	2.7475
-301.8	2.3417	2.2558	2.7471
-301.7	2.3414	2.2551	2.7466
-301.6	2.341	2.2543	2.7463
-301.5	2.3407	2.2536	2.7461
-301.4	2.3403	2.2528	2.7458
-301.3	2.34	2.2521	2.7457
-301.2	2.3396	2.2513	2.7456
-301.1	2.3393	2.2506	2.7455
-301	2.3388	2.2498	2.7455
-300.9	2.3383	2.2491	2.7455
-300.8	2.3379	2.2484	2.7454
-300.7	2.3373	2.2476	2.7455
-300.6	2.3368	2.247	2.7456
-300.5	2.3362	2.2462	2.7456
-300.4	2.3358	2.2455	2.7458
-300.3	2.3353	2.2448	2.7458
-300.2	2.3347	2.2441	2.7459
-300.1	2.3343	2.2433	2.746
-300	2.3338	2.2426	2.7461
-299.9	2.3332	2.2419	2.7463
-299.8	2.3327	2.2412	2.7464
-299.7	2.3323	2.2405	2.7465
-299.6	2.3318	2.2398	2.7465
-299.5	2.3313	2.2391	2.7466
-299.4	2.3307	2.2384	2.7466
-299.3	2.3302	2.2378	2.7467
-299.2	2.3297	2.2371	2.7467
-299.1	2.3291	2.2365	2.7467
-299	2.3285	2.2359	2.7468
-298.9	2.3279	2.2353	2.7468
-298.8	2.3274	2.2347	2.7469
-298.7	2.3269	2.2341	2.7469
-298.6	2.3263	2.2335	2.747
-298.5	2.3257	2.2329	2.7471
-298.4	2.3252	2.2323	2.7472
-298.3	2.3246	2.2318	2.7474
-298.2	2.324	2.2312	2.7476
-298.1	2.3233	2.2306	2.7478
-298	2.3227	2.2301	2.748
-297.9	2.3221	2.2296	2.7483
-297.8	2.3214	2.2291	2.7486
-297.7	2.3207	2.2286	2.7489
-297.6	2.32	2.2281	2.7492
-297.5	2.3193	2.2276	2.7495
-297.4	2.3185	2.2271	2.7499
-297.3	2.3176	2.2266	2.7502
-297.2	2.3168	2.2262	2.7506
-297.1	2.3159	2.2257	2.751
-297	2.315	2.2253	2.7513
-296.9	2.3141	2.2248	2.7518
-296.8	2.3132	2.2244	2.7522
-296.7	2.3124	2.2239	2.7526
-296.6	2.3115	2.2235	2.753
-296.5	2.3106	2.223	2.7534
-296.4	2.3098	2.2226	2.7538
-296.3	2.3089	2.2221	2.7543
-296.2	2.308	2.2217	2.7547
-296.1	2.3071	2.2212	2.7551
-296	2.3061	2.2208	2.7556
-295.9	2.3053	2.2204	2.7561
-295.8	2.3044	2.22	2.7565
-295.7	2.3035	2.2195	2.757
-295.6	2.3026	2.2191	2.7575
-295.5	2.3017	2.2187	2.758
-295.4	2.3009	2.2182	2.7585
-295.3	2.2999	2.2178	2.7591
-295.2	2.2991	2.2173	2.7597
-295.1	2.2983	2.2169	2.7602
-295	2.2975	2.2164	2.7608
-294.9	2.2968	2.216	2.7614
-294.8	2.296	2.2156	2.762
-294.7	2.2951	2.2151	2.7626
-294.6	2.2944	2.2147	2.7633
-294.5	2.2936	2.2143	2.7639
-294.4	2.2928	2.2139	2.7644
-294.3	2.2921	2.2135	2.7651
-294.2	2.2914	2.2131	2.7657
-294.1	2.2905	2.2127	2.7663
-294	2.2898	2.2123	2.7669
-293.9	2.2889	2.2119	2.7674
-293.8	2.288	2.2115	2.768
-293.7	2.2871	2.2111	2.7686
-293.6	2.2862	2.2107	2.7692
-293.5	2.2853	2.2103	2.7697
-293.4	2.2844	2.2099	2.7703
-293.3	2.2835	2.2095	2.7709
-293.2	2.2827	2.2091	2.7715
-293.1	2.2819	2.2087	2.7721
-293	2.281	2.2083	2.7727
-292.9	2.2801	2.2079	2.7734
-292.8	2.2793	2.2075	2.7741
-292.7	2.2785	2.2071	2.7748
-292.6	2.2777	2.2068	2.7756
-292.5	2.2768	2.2064	2.7763
-292.4	2.276	2.2059	2.7772
-292.3	2.2751	2.2056	2.7781
-292.2	2.2743	2.2051	2.779
-292.1	2.2734	2.2047	2.78
-292	2.2726	2.2043	2.7811
-291.9	2.2717	2.2039	2.7822
-291.8	2.2709	2.2034	2.7833
-291.7	2.27	2.203	2.7844
-291.6	2.2692	2.2026	2.7856
-291.5	2.2684	2.2022	2.7868
-291.4	2.2676	2.2018	2.788
-291.3	2.2669	2.2013	2.7892
-291.2	2.2661	2.2009	2.7903
-291.1	2.2652	2.2005	2.7914
-291	2.2645	2.2001	2.7926
-290.9	2.2637	2.1996	2.7936
-290.8	2.2628	2.1992	2.7946
-290.7	2.2621	2.1987	2.7956
-290.6	2.2613	2.1983	2.7964
-290.5	2.2606	2.1978	2.7972
-290.4	2.2598	2.1974	2.798
-290.3	2.2591	2.1969	2.7987
-290.2	2.2583	2.1964	2.7993
-290.1	2.2574	2.1959	2.7998
