Kurbelwinkel	Hub_AV
[KWnAO]	[mm]
  0.0	 0.005000
  0.1	 0.010200
  0.2	 0.015400
  0.3	 0.020700
  0.4	 0.025900
  0.5	 0.031100
  0.6	 0.036300
  0.7	 0.041400
  0.8	 0.046600
  0.9	 0.051700
  1.0	 0.056900
  1.1	 0.062000
  1.2	 0.067200
  1.3	 0.072300
  1.4	 0.077400
  1.5	 0.082500
  1.6	 0.087600
  1.7	 0.092700
  1.8	 0.097700
  1.9	 0.102800
  2.0	 0.107900
  2.1	 0.112900
  2.2	 0.118000
  2.3	 0.123000
  2.4	 0.128000
  2.5	 0.133000
  2.6	 0.138000
  2.7	 0.143000
  2.8	 0.148000
  2.9	 0.153000
  3.0	 0.157900
  3.1	 0.162900
  3.2	 0.167900
  3.3	 0.172800
  3.4	 0.177700
  3.5	 0.182600
  3.6	 0.187500
  3.7	 0.192400
  3.8	 0.197300
  3.9	 0.202200
  4.0	 0.207000
  4.1	 0.211900
  4.2	 0.216700
  4.3	 0.221500
  4.4	 0.226300
  4.5	 0.231100
  4.6	 0.235900
  4.7	 0.240700
  4.8	 0.245500
  4.9	 0.250300
  5.0	 0.255100
  5.1	 0.259800
  5.2	 0.264600
  5.3	 0.269300
  5.4	 0.274000
  5.5	 0.278700
  5.6	 0.283400
  5.7	 0.288100
  5.8	 0.292800
  5.9	 0.297400
  6.0	 0.302100
  6.1	 0.306700
  6.2	 0.311400
  6.3	 0.316000
  6.4	 0.320600
  6.5	 0.325200
  6.6	 0.329800
  6.7	 0.334400
  6.8	 0.339000
  6.9	 0.343600
  7.0	 0.348100
  7.1	 0.352700
  7.2	 0.357200
  7.3	 0.361700
  7.4	 0.366200
  7.5	 0.370700
  7.6	 0.375200
  7.7	 0.379700
  7.8	 0.384100
  7.9	 0.388600
  8.0	 0.393100
  8.1	 0.397600
  8.2	 0.402000
  8.3	 0.406400
  8.4	 0.410800
  8.5	 0.415200
  8.6	 0.419600
  8.7	 0.424000
  8.8	 0.428300
  8.9	 0.432700
  9.0	 0.437000
  9.1	 0.441300
  9.2	 0.445600
  9.3	 0.450000
  9.4	 0.454300
  9.5	 0.458600
  9.6	 0.462900
  9.7	 0.467200
  9.8	 0.471400
  9.9	 0.475700
 10.0	 0.479900
 10.1	 0.484200
 10.2	 0.488400
 10.3	 0.492600
 10.4	 0.496800
 10.5	 0.501000
 10.6	 0.505200
 10.7	 0.509300
 10.8	 0.513500
 10.9	 0.517600
 11.0	 0.521700
 11.1	 0.525900
 11.2	 0.530000
 11.3	 0.534100
 11.4	 0.538200
 11.5	 0.542300
 11.6	 0.546400
 11.7	 0.550500
 11.8	 0.554500
 11.9	 0.558600
 12.0	 0.562600
 12.1	 0.566600
 12.2	 0.570700
 12.3	 0.574700
 12.4	 0.578700
 12.5	 0.582700
 12.6	 0.586600
 12.7	 0.590600
 12.8	 0.594600
 12.9	 0.598500
 13.0	 0.602400
 13.1	 0.606300
 13.2	 0.610300
 13.3	 0.614200
 13.4	 0.618100
 13.5	 0.622000
 13.6	 0.625800
 13.7	 0.629700
 13.8	 0.633500
 13.9	 0.637400
 14.0	 0.641200
 14.1	 0.645100
 14.2	 0.648900
 14.3	 0.652700
 14.4	 0.656500
 14.5	 0.660300
 14.6	 0.664100
 14.7	 0.667800
 14.8	 0.671600
 14.9	 0.675400
 15.0	 0.679100
 15.1	 0.682900
 15.2	 0.686600
 15.3	 0.690300
 15.4	 0.694000
 15.5	 0.697700
 15.6	 0.701400
 15.7	 0.705000
 15.8	 0.708700
 15.9	 0.712400
 16.0	 0.716100
 16.1	 0.719700
 16.2	 0.723300
 16.3	 0.726900
 16.4	 0.730500
 16.5	 0.734100
 16.6	 0.737700
 16.7	 0.741300
 16.8	 0.744900
 16.9	 0.748500
 17.0	 0.752100
 17.1	 0.755700
 17.2	 0.759200
 17.3	 0.762700
 17.4	 0.766300
 17.5	 0.769800
 17.6	 0.773300
 17.7	 0.776800
 17.8	 0.780400
 17.9	 0.783900
 18.0	 0.787400
 18.1	 0.790900
 18.2	 0.794300
 18.3	 0.797800
 18.4	 0.801300
 18.5	 0.804800
 18.6	 0.808200
 18.7	 0.811700
 18.8	 0.815200
 18.9	 0.818600
 19.0	 0.822000
 19.1	 0.825400
 19.2	 0.828900
 19.3	 0.832300
 19.4	 0.835700
 19.5	 0.839000
 19.6	 0.842400
 19.7	 0.845700
 19.8	 0.849100
 19.9	 0.852000
 20.0	 0.856000
 20.1	 0.859000
 20.2	 0.862000
 20.3	 0.866000
 20.4	 0.869000
 20.5	 0.872000
 20.6	 0.876000
 20.7	 0.879000
 20.8	 0.882000
 20.9	 0.885000
 21.0	 0.889000
 21.1	 0.892000
 21.2	 0.895000
 21.3	 0.898000
 21.4	 0.901000
 21.5	 0.905000
 21.6	 0.908000
 21.7	 0.911000
 21.8	 0.914000
 21.9	 0.917000
 22.0	 0.921000
 22.1	 0.924000
 22.2	 0.927000
 22.3	 0.930000
 22.4	 0.933000
 22.5	 0.936000
 22.6	 0.939000
 22.7	 0.942000
 22.8	 0.945000
 22.9	 0.948000
 23.0	 0.951000
 23.1	 0.954000
 23.2	 0.957000
 23.3	 0.960000
 23.4	 0.963000
 23.5	 0.966000
 23.6	 0.969000
 23.7	 0.972000
 23.8	 0.975000
 23.9	 0.978000
 24.0	 0.981000
 24.1	 0.984000
 24.2	 0.987000
 24.3	 0.990000
 24.4	 0.993000
 24.5	 0.996000
 24.6	 0.999000
 24.7	 1.001000
 24.8	 1.004000
 24.9	 1.007000
 25.0	 1.010000
 25.1	 1.013000
 25.2	 1.016000
 25.3	 1.018000
 25.4	 1.021000
 25.5	 1.024000
 25.6	 1.027000
 25.7	 1.029000
 25.8	 1.032000
 25.9	 1.035000
 26.0	 1.038000
 26.1	 1.040000
 26.2	 1.043000
 26.3	 1.046000
 26.4	 1.048000
 26.5	 1.051000
 26.6	 1.054000
 26.7	 1.056000
 26.8	 1.059000
 26.9	 1.062000
 27.0	 1.064000
 27.1	 1.067000
 27.2	 1.069000
 27.3	 1.072000
 27.4	 1.074000
 27.5	 1.077000
 27.6	 1.080000
 27.7	 1.082000
 27.8	 1.085000
 27.9	 1.087000
 28.0	 1.090000
 28.1	 1.092000
 28.2	 1.095000
 28.3	 1.097000
 28.4	 1.100000
 28.5	 1.102000
 28.6	 1.104000
 28.7	 1.107000
 28.8	 1.109000
 28.9	 1.112000
 29.0	 1.114000
 29.1	 1.116000
 29.2	 1.119000
 29.3	 1.121000
 29.4	 1.124000
 29.5	 1.126000
 29.6	 1.128000
 29.7	 1.131000
 29.8	 1.133000
 29.9	 1.135000
 30.0	 1.137000
 30.1	 1.140000
 30.2	 1.142000
 30.3	 1.144000
 30.4	 1.146000
 30.5	 1.149000
 30.6	 1.151000
 30.7	 1.153000
 30.8	 1.155000
 30.9	 1.157000
 31.0	 1.160000
 31.1	 1.162000
 31.2	 1.164000
 31.3	 1.166000
 31.4	 1.168000
 31.5	 1.170000
 31.6	 1.172000
 31.7	 1.174000
 31.8	 1.176000
 31.9	 1.179000
 32.0	 1.181000
 32.1	 1.183000
 32.2	 1.185000
 32.3	 1.187000
 32.4	 1.189000
 32.5	 1.191000
 32.6	 1.193000
 32.7	 1.195000
 32.8	 1.197000
 32.9	 1.199000
 33.0	 1.201000
 33.1	 1.202000
 33.2	 1.204000
 33.3	 1.206000
 33.4	 1.208000
 33.5	 1.210000
 33.6	 1.212000
 33.7	 1.214000
 33.8	 1.216000
 33.9	 1.217000
 34.0	 1.219000
 34.1	 1.221000
 34.2	 1.223000
 34.3	 1.225000
 34.4	 1.227000
 34.5	 1.228000
 34.6	 1.230000
 34.7	 1.232000
 34.8	 1.234000
 34.9	 1.235000
 35.0	 1.237000
 35.1	 1.239000
 35.2	 1.240000
 35.3	 1.242000
 35.4	 1.244000
 35.5	 1.245000
 35.6	 1.247000
 35.7	 1.249000
 35.8	 1.250000
 35.9	 1.252000
 36.0	 1.254000
 36.1	 1.255000
 36.2	 1.257000
 36.3	 1.258000
 36.4	 1.260000
 36.5	 1.261000
 36.6	 1.263000
 36.7	 1.265000
 36.8	 1.266000
 36.9	 1.268000
 37.0	 1.269000
 37.1	 1.271000
 37.2	 1.272000
 37.3	 1.274000
 37.4	 1.275000
 37.5	 1.276000
 37.6	 1.278000
 37.7	 1.279000
 37.8	 1.281000
 37.9	 1.282000
 38.0	 1.284000
 38.1	 1.285000
 38.2	 1.286000
 38.3	 1.288000
 38.4	 1.289000
 38.5	 1.290000
 38.6	 1.292000
 38.7	 1.293000
 38.8	 1.294000
 38.9	 1.295000
 39.0	 1.297000
 39.1	 1.298000
 39.2	 1.299000
 39.3	 1.301000
 39.4	 1.302000
 39.5	 1.303000
 39.6	 1.304000
 39.7	 1.305000
 39.8	 1.307000
 39.9	 1.308000
 40.0	 1.309000
 40.1	 1.310000
 40.2	 1.311000
 40.3	 1.312000
 40.4	 1.314000
 40.5	 1.315000
 40.6	 1.316000
 40.7	 1.317000
 40.8	 1.318000
 40.9	 1.319000
 41.0	 1.320000
 41.1	 1.321000
 41.2	 1.322000
 41.3	 1.323000
 41.4	 1.324000
 41.5	 1.325000
 41.6	 1.326000
 41.7	 1.327000
 41.8	 1.328000
 41.9	 1.329000
 42.0	 1.330000
 42.1	 1.331000
 42.2	 1.332000
 42.3	 1.333000
 42.4	 1.334000
 42.5	 1.335000
 42.6	 1.336000
 42.7	 1.336000
 42.8	 1.337000
 42.9	 1.338000
 43.0	 1.339000
 43.1	 1.340000
 43.2	 1.341000
 43.3	 1.341000
 43.4	 1.342000
 43.5	 1.343000
 43.6	 1.344000
 43.7	 1.345000
 43.8	 1.345000
 43.9	 1.346000
 44.0	 1.347000
 44.1	 1.348000
 44.2	 1.348000
 44.3	 1.349000
 44.4	 1.350000
 44.5	 1.350000
 44.6	 1.351000
 44.7	 1.352000
 44.8	 1.352000
 44.9	 1.353000
 45.0	 1.354000
 45.1	 1.354000
 45.2	 1.355000
 45.3	 1.355000
 45.4	 1.356000
 45.5	 1.357000
 45.6	 1.357000
 45.7	 1.358000
 45.8	 1.358000
 45.9	 1.359000
 46.0	 1.359000
 46.1	 1.360000
 46.2	 1.360000
 46.3	 1.361000
 46.4	 1.361000
 46.5	 1.362000
 46.6	 1.362000
 46.7	 1.363000
 46.8	 1.363000
 46.9	 1.364000
 47.0	 1.364000
 47.1	 1.364000
 47.2	 1.365000
 47.3	 1.365000
 47.4	 1.366000
 47.5	 1.366000
 47.6	 1.366000
 47.7	 1.367000
 47.8	 1.367000
 47.9	 1.367000
 48.0	 1.368000
 48.1	 1.368000
 48.2	 1.368000
 48.3	 1.369000
 48.4	 1.369000
 48.5	 1.369000
 48.6	 1.369000
 48.7	 1.370000
 48.8	 1.370000
 48.9	 1.370000
 49.0	 1.370000
 49.1	 1.370000
 49.2	 1.371000
 49.3	 1.371000
 49.4	 1.371000
 49.5	 1.371000
 49.6	 1.371000
 49.7	 1.371000
 49.8	 1.372000
 49.9	 1.372000
 50.0	 1.372000
 50.1	 1.372000
 50.2	 1.372000
 50.3	 1.372000
 50.4	 1.372000
 50.5	 1.372000
 50.6	 1.372000
 50.7	 1.372000
 50.8	 1.372000
 50.9	 1.372000
 51.0	 1.372000
 51.1	 1.372000
 51.2	 1.372000
 51.3	 1.372000
 51.4	 1.372000
 51.5	 1.372000
 51.6	 1.372000
 51.7	 1.372000
 51.8	 1.372000
 51.9	 1.372000
 52.0	 1.372000
 52.1	 1.372000
 52.2	 1.372000
 52.3	 1.372000
 52.4	 1.372000
 52.5	 1.371000
 52.6	 1.371000
 52.7	 1.371000
 52.8	 1.371000
 52.9	 1.371000
 53.0	 1.371000
 53.1	 1.371000
 53.2	 1.370000
 53.3	 1.370000
 53.4	 1.370000
 53.5	 1.370000
 53.6	 1.369000
 53.7	 1.369000
 53.8	 1.369000
 53.9	 1.369000
 54.0	 1.368000
 54.1	 1.368000
 54.2	 1.368000
 54.3	 1.367000
 54.4	 1.367000
 54.5	 1.367000
 54.6	 1.367000
 54.7	 1.366000
 54.8	 1.366000
 54.9	 1.365000
 55.0	 1.365000
 55.1	 1.365000
 55.2	 1.364000
 55.3	 1.364000
 55.4	 1.364000
 55.5	 1.363000
 55.6	 1.363000
 55.7	 1.362000
 55.8	 1.362000
 55.9	 1.361000
 56.0	 1.361000
 56.1	 1.361000
 56.2	 1.360000
 56.3	 1.360000
 56.4	 1.359000
 56.5	 1.359000
 56.6	 1.358000
 56.7	 1.358000
 56.8	 1.357000
 56.9	 1.357000
 57.0	 1.356000
 57.1	 1.355000
 57.2	 1.355000
 57.3	 1.354000
 57.4	 1.354000
 57.5	 1.353000
 57.6	 1.353000
 57.7	 1.352000
 57.8	 1.351000
 57.9	 1.351000
 58.0	 1.350000
 58.1	 1.349000
 58.2	 1.349000
 58.3	 1.348000
 58.4	 1.347000
 58.5	 1.347000
 58.6	 1.346000
 58.7	 1.345000
 58.8	 1.345000
 58.9	 1.344000
 59.0	 1.343000
 59.1	 1.342000
 59.2	 1.341000
 59.3	 1.341000
 59.4	 1.340000
 59.5	 1.339000
 59.6	 1.338000
 59.7	 1.337000
 59.8	 1.337000
 59.9	 1.336000
 60.0	 1.335000
 60.1	 1.334000
 60.2	 1.333000
 60.3	 1.332000
 60.4	 1.331000
 60.5	 1.331000
 60.6	 1.330000
 60.7	 1.329000
 60.8	 1.328000
 60.9	 1.327000
 61.0	 1.326000
 61.1	 1.325000
 61.2	 1.324000
 61.3	 1.323000
 61.4	 1.322000
 61.5	 1.321000
 61.6	 1.320000
 61.7	 1.319000
 61.8	 1.318000
 61.9	 1.317000
 62.0	 1.316000
 62.1	 1.315000
 62.2	 1.313000
 62.3	 1.312000
 62.4	 1.311000
 62.5	 1.310000
 62.6	 1.309000
 62.7	 1.308000
 62.8	 1.307000
 62.9	 1.305000
 63.0	 1.304000
 63.1	 1.303000
 63.2	 1.302000
 63.3	 1.301000
 63.4	 1.299000
 63.5	 1.298000
 63.6	 1.297000
 63.7	 1.296000
 63.8	 1.294000
 63.9	 1.293000
 64.0	 1.292000
 64.1	 1.291000
 64.2	 1.289000
 64.3	 1.288000
 64.4	 1.287000
 64.5	 1.285000
 64.6	 1.284000
 64.7	 1.283000
 64.8	 1.281000
 64.9	 1.280000
 65.0	 1.278000
 65.1	 1.277000
 65.2	 1.276000
 65.3	 1.274000
 65.4	 1.273000
 65.5	 1.271000
 65.6	 1.270000
 65.7	 1.268000
 65.8	 1.267000
 65.9	 1.265000
 66.0	 1.264000
 66.1	 1.262000
 66.2	 1.261000
 66.3	 1.259000
 66.4	 1.258000
 66.5	 1.256000
 66.6	 1.254000
 66.7	 1.253000
 66.8	 1.251000
 66.9	 1.250000
 67.0	 1.248000
 67.1	 1.246000
 67.2	 1.245000
 67.3	 1.243000
 67.4	 1.241000
 67.5	 1.240000
 67.6	 1.238000
 67.7	 1.236000
 67.8	 1.235000
 67.9	 1.233000
 68.0	 1.231000
 68.1	 1.229000
 68.2	 1.228000
 68.3	 1.226000
 68.4	 1.224000
 68.5	 1.222000
 68.6	 1.221000
 68.7	 1.219000
 68.8	 1.217000
 68.9	 1.215000
 69.0	 1.213000
 69.1	 1.211000
 69.2	 1.210000
 69.3	 1.208000
 69.4	 1.206000
 69.5	 1.204000
 69.6	 1.202000
 69.7	 1.200000
 69.8	 1.198000
 69.9	 1.196000
 70.0	 1.194000
 70.1	 1.192000
 70.2	 1.190000
 70.3	 1.188000
 70.4	 1.186000
 70.5	 1.184000
 70.6	 1.182000
 70.7	 1.180000
 70.8	 1.178000
 70.9	 1.176000
 71.0	 1.174000
 71.1	 1.172000
 71.2	 1.170000
 71.3	 1.168000
 71.4	 1.166000
 71.5	 1.163000
 71.6	 1.161000
 71.7	 1.159000
 71.8	 1.157000
 71.9	 1.155000
 72.0	 1.153000
 72.1	 1.150000
 72.2	 1.148000
 72.3	 1.146000
 72.4	 1.144000
 72.5	 1.142000
 72.6	 1.139000
 72.7	 1.137000
 72.8	 1.135000
 72.9	 1.132000
 73.0	 1.130000
 73.1	 1.128000
 73.2	 1.126000
 73.3	 1.123000
 73.4	 1.121000
 73.5	 1.119000
 73.6	 1.116000
 73.7	 1.114000
 73.8	 1.112000
 73.9	 1.109000
 74.0	 1.107000
 74.1	 1.104000
 74.2	 1.102000
 74.3	 1.099000
 74.4	 1.097000
 74.5	 1.095000
 74.6	 1.092000
 74.7	 1.090000
 74.8	 1.087000
 74.9	 1.085000
 75.0	 1.082000
 75.1	 1.080000
 75.2	 1.077000
 75.3	 1.075000
 75.4	 1.072000
 75.5	 1.070000
 75.6	 1.067000
 75.7	 1.064000
 75.8	 1.062000
 75.9	 1.059000
 76.0	 1.057000
 76.1	 1.054000
 76.2	 1.051000
 76.3	 1.049000
 76.4	 1.046000
 76.5	 1.043000
 76.6	 1.041000
 76.7	 1.038000
 76.8	 1.035000
 76.9	 1.033000
 77.0	 1.030000
 77.1	 1.027000
 77.2	 1.024000
 77.3	 1.022000
 77.4	 1.019000
 77.5	 1.016000
 77.6	 1.013000
 77.7	 1.011000
 77.8	 1.008000
 77.9	 1.005000
 78.0	 1.002000
 78.1	 0.999000
 78.2	 0.997000
 78.3	 0.994000
 78.4	 0.991000
 78.5	 0.988000
 78.6	 0.985000
 78.7	 0.982000
 78.8	 0.979000
 78.9	 0.977000
 79.0	 0.974000
 79.1	 0.971000
 79.2	 0.968000
 79.3	 0.965000
 79.4	 0.962000
 79.5	 0.959000
 79.6	 0.956000
 79.7	 0.953000
 79.8	 0.950000
 79.9	 0.947000
 80.0	 0.944000
 80.1	 0.941000
 80.2	 0.938000
 80.3	 0.935000
 80.4	 0.932000
 80.5	 0.929000
 80.6	 0.926000
 80.7	 0.923000
 80.8	 0.920000
 80.9	 0.917000
 81.0	 0.914000
 81.1	 0.911000
 81.2	 0.908000
 81.3	 0.905000
 81.4	 0.902000
 81.5	 0.898000
 81.6	 0.895000
 81.7	 0.892000
 81.8	 0.889000
 81.9	 0.886000
 82.0	 0.883000
 82.1	 0.880000
 82.2	 0.877000
 82.3	 0.873000
 82.4	 0.870000
 82.5	 0.867000
 82.6	 0.864000
 82.7	 0.861000
 82.8	 0.858000
 82.9	 0.854000
 83.0	 0.851000
 83.1	 0.847900
 83.2	 0.844700
 83.3	 0.841500
 83.4	 0.838200
 83.5	 0.835000
 83.6	 0.831700
 83.7	 0.828400
 83.8	 0.825100
 83.9	 0.821800
 84.0	 0.818500
 84.1	 0.815100
 84.2	 0.811800
 84.3	 0.808500
 84.4	 0.805200
 84.5	 0.801800
 84.6	 0.798400
 84.7	 0.795000
 84.8	 0.791600
 84.9	 0.788200
 85.0	 0.784800
 85.1	 0.781400
 85.2	 0.777900
 85.3	 0.774500
 85.4	 0.771000
 85.5	 0.767600
 85.6	 0.764100
 85.7	 0.760600
 85.8	 0.757100
 85.9	 0.753600
 86.0	 0.750100
 86.1	 0.746600
 86.2	 0.743000
 86.3	 0.739500
 86.4	 0.736000
 86.5	 0.732400
 86.6	 0.728800
 86.7	 0.725200
 86.8	 0.721700
 86.9	 0.718100
 87.0	 0.714500
 87.1	 0.710900
 87.2	 0.707200
 87.3	 0.703600
 87.4	 0.699900
 87.5	 0.696300
 87.6	 0.692600
 87.7	 0.688900
 87.8	 0.685200
 87.9	 0.681500
 88.0	 0.677800
 88.1	 0.674100
 88.2	 0.670300
 88.3	 0.666600
 88.4	 0.662800
 88.5	 0.659000
 88.6	 0.655200
 88.7	 0.651500
 88.8	 0.647700
 88.9	 0.643800
 89.0	 0.640000
 89.1	 0.636200
 89.2	 0.632400
 89.3	 0.628500
 89.4	 0.624700
 89.5	 0.620800
 89.6	 0.616900
 89.7	 0.613000
 89.8	 0.609100
 89.9	 0.605200
 90.0	 0.601300
 90.1	 0.597400
 90.2	 0.593400
 90.3	 0.589500
 90.4	 0.585500
 90.5	 0.581600
 90.6	 0.577600
 90.7	 0.573600
 90.8	 0.569600
 90.9	 0.565500
 91.0	 0.561500
 91.1	 0.557500
 91.2	 0.553500
 91.3	 0.549400
 91.4	 0.545300
 91.5	 0.541200
 91.6	 0.537200
 91.7	 0.533100
 91.8	 0.529000
 91.9	 0.524900
 92.0	 0.520700
 92.1	 0.516600
 92.2	 0.512400
 92.3	 0.508300
 92.4	 0.504100
 92.5	 0.499900
 92.6	 0.495700
 92.7	 0.491500
 92.8	 0.487300
 92.9	 0.483100
 93.0	 0.478900
 93.1	 0.474600
 93.2	 0.470400
 93.3	 0.466100
 93.4	 0.461800
 93.5	 0.457600
 93.6	 0.453300
 93.7	 0.448900
 93.8	 0.444600
 93.9	 0.440300
 94.0	 0.436000
 94.1	 0.431600
 94.2	 0.427300
 94.3	 0.422900
 94.4	 0.418500
 94.5	 0.414100
 94.6	 0.409700
 94.7	 0.405300
 94.8	 0.400900
 94.9	 0.396500
 95.0	 0.392100
 95.1	 0.387700
 95.2	 0.383200
 95.3	 0.378700
 95.4	 0.374300
 95.5	 0.369800
 95.6	 0.365300
 95.7	 0.360800
 95.8	 0.356300
 95.9	 0.351700
 96.0	 0.347200
 96.1	 0.342600
 96.2	 0.338100
 96.3	 0.333500
 96.4	 0.329000
 96.5	 0.324400
 96.6	 0.319800
 96.7	 0.315200
 96.8	 0.310600
 96.9	 0.305900
 97.0	 0.301300
 97.1	 0.296700
 97.2	 0.292000
 97.3	 0.287400
 97.4	 0.282700
 97.5	 0.278000
 97.6	 0.273300
 97.7	 0.268600
 97.8	 0.263900
 97.9	 0.259200
 98.0	 0.254500
 98.1	 0.249800
 98.2	 0.245000
 98.3	 0.240200
 98.4	 0.235500
 98.5	 0.230700
 98.6	 0.225900
 98.7	 0.221200
 98.8	 0.216400
 98.9	 0.211500
 99.0	 0.206700
 99.1	 0.201900
 99.2	 0.197100
 99.3	 0.192200
 99.4	 0.187300
 99.5	 0.182400
 99.6	 0.177600
 99.7	 0.172700
 99.8	 0.167800
 99.9	 0.162900
100.0	 0.158000
100.1	 0.153100
100.2	 0.148100
100.3	 0.143200
100.4	 0.138200
100.5	 0.133300
100.6	 0.128300
100.7	 0.123400
100.8	 0.118400
100.9	 0.113400
101.0	 0.108400
101.1	 0.103400
101.2	 0.097600
101.3	 0.090400
101.4	 0.083300
101.5	 0.076200
101.6	 0.070100
101.7	 0.065600
101.8	 0.061000
101.9	 0.056500
102.0	 0.052000
102.1	 0.047400
102.2	 0.042800
102.3	 0.038200
102.4	 0.033700
102.5	 0.029100
102.6	 0.024500
102.7	 0.019900
102.8	 0.015400
102.9	 0.010800
103.0	 0.006200
103.1	 0.001600
