[KWnZOT]	[bar]	[bar]	[bar]
-360	2.8335	2.2859	2.8009
-359.9	2.8284	2.2858	2.7994
-359.8	2.8199	2.2858	2.798
-359.7	2.8184	2.2864	2.7974
-359.6	2.8105	2.2863	2.7947
-359.5	2.807	2.2864	2.794
-359.4	2.8028	2.2865	2.7928
-359.3	2.7983	2.2866	2.79
-359.2	2.7909	2.2865	2.7895
-359.1	2.7852	2.287	2.7881
-359	2.7791	2.2869	2.7857
-358.9	2.7725	2.2869	2.7846
-358.8	2.7682	2.287	2.7833
-358.7	2.7626	2.2876	2.7818
-358.6	2.7561	2.2873	2.7793
-358.5	2.7519	2.2876	2.7787
-358.4	2.7478	2.288	2.7777
-358.3	2.7413	2.2876	2.7743
-358.2	2.7348	2.2881	2.7746
-358.1	2.7286	2.2879	2.7724
-358	2.7243	2.2888	2.7716
-357.9	2.718	2.2881	2.7705
-357.8	2.7106	2.2883	2.7689
-357.7	2.7067	2.2884	2.7682
-357.6	2.7017	2.2886	2.7674
-357.5	2.694	2.289	2.7661
-357.4	2.6884	2.289	2.765
-357.3	2.6812	2.2887	2.7626
-357.2	2.6755	2.2889	2.7619
-357.1	2.6697	2.2892	2.7611
-357	2.6651	2.289	2.7587
-356.9	2.6576	2.2893	2.7583
-356.8	2.6523	2.2899	2.7582
-356.7	2.6451	2.2895	2.7556
-356.6	2.6375	2.2893	2.7556
-356.5	2.6318	2.2893	2.7545
-356.4	2.6266	2.2892	2.7538
-356.3	2.6197	2.2885	2.7527
-356.2	2.6148	2.2886	2.7524
-356.1	2.6094	2.2883	2.7517
-356	2.6007	2.2878	2.75
-355.9	2.5935	2.2878	2.7503
-355.8	2.5909	2.2875	2.7487
-355.7	2.5825	2.2867	2.7472
-355.6	2.5778	2.2867	2.7465
-355.5	2.572	2.2867	2.7461
-355.4	2.5657	2.2861	2.7445
-355.3	2.5589	2.2865	2.7454
-355.2	2.5553	2.286	2.744
-355.1	2.5481	2.286	2.7438
-355	2.5442	2.2849	2.7427
-354.9	2.5371	2.285	2.7427
-354.8	2.5329	2.2843	2.7417
-354.7	2.5253	2.2839	2.7418
-354.6	2.5209	2.2831	2.7408
-354.5	2.5154	2.2833	2.7421
-354.4	2.5101	2.2823	2.7403
-354.3	2.5041	2.2814	2.7405
-354.2	2.4996	2.2814	2.7399
-354.1	2.4966	2.2807	2.7396
-354	2.4885	2.2798	2.7395
-353.9	2.4843	2.2798	2.7391
-353.8	2.4817	2.279	2.7396
-353.7	2.4756	2.2779	2.7384
-353.6	2.4701	2.278	2.7392
-353.5	2.4666	2.2767	2.7377
-353.4	2.4635	2.2761	2.7383
-353.3	2.4602	2.2758	2.7382
-353.2	2.4554	2.2752	2.7384
-353.1	2.4499	2.2738	2.7381
-353	2.4474	2.2735	2.7387
-352.9	2.4436	2.2725	2.739
-352.8	2.4395	2.2718	2.7387
-352.7	2.4364	2.2707	2.7384
-352.6	2.4313	2.2701	2.74
-352.5	2.4286	2.2692	2.739
-352.4	2.4271	2.268	2.7386
-352.3	2.4218	2.2673	2.739
-352.2	2.4218	2.2665	2.7397
-352.1	2.4171	2.2657	2.7387
-352	2.4148	2.2651	2.7404
-351.9	2.4133	2.2643	2.7402
-351.8	2.4101	2.263	2.7402
-351.7	2.4093	2.2627	2.7414
-351.6	2.4085	2.2617	2.7414
-351.5	2.4027	2.2614	2.7428
-351.4	2.4016	2.26	2.743
-351.3	2.4	2.2589	2.7433
-351.2	2.3993	2.2579	2.743
-351.1	2.3968	2.2568	2.7448
-351	2.3966	2.2557	2.7457
-350.9	2.3971	2.255	2.7469
-350.8	2.3926	2.2538	2.7473
-350.7	2.394	2.2529	2.7484
-350.6	2.3928	2.2523	2.7493
-350.5	2.3903	2.2511	2.7503
-350.4	2.3908	2.2508	2.7527
-350.3	2.3907	2.2504	2.7538
-350.2	2.39	2.2492	2.7549
-350.1	2.3886	2.2485	2.7559
-350	2.3896	2.2479	2.7568
-349.9	2.3878	2.2463	2.7572
-349.8	2.3905	2.2457	2.7592
-349.7	2.3895	2.2444	2.7598
-349.6	2.3877	2.2432	2.7614
-349.5	2.3888	2.2421	2.7621
-349.4	2.3885	2.2409	2.7635
-349.3	2.3859	2.2394	2.7644
-349.2	2.3878	2.2388	2.7667
-349.1	2.3885	2.2378	2.7681
-349	2.3881	2.2369	2.7694
-348.9	2.3894	2.2354	2.7701
-348.8	2.3908	2.2352	2.7723
-348.7	2.3892	2.2339	2.7735
-348.6	2.3901	2.2329	2.7745
-348.5	2.3898	2.2326	2.7772
-348.4	2.3907	2.2307	2.777
-348.3	2.3908	2.2303	2.78
-348.2	2.3906	2.2296	2.7816
-348.1	2.391	2.2281	2.7818
-348	2.3919	2.2269	2.7834
-347.9	2.3912	2.2265	2.7859
-347.8	2.3903	2.225	2.7862
-347.7	2.3921	2.2241	2.7883
-347.6	2.3907	2.223	2.7893
-347.5	2.3936	2.222	2.7907
-347.4	2.3916	2.2209	2.7916
-347.3	2.3936	2.2201	2.7938
-347.2	2.3919	2.2192	2.7942
-347.1	2.3935	2.2183	2.7962
-347	2.3922	2.2174	2.7979
-346.9	2.3923	2.217	2.7999
-346.8	2.3942	2.2156	2.8004
-346.7	2.3909	2.2149	2.8028
-346.6	2.3939	2.2142	2.804
-346.5	2.3929	2.2128	2.8047
-346.4	2.3942	2.2117	2.8064
-346.3	2.3929	2.2108	2.808
-346.2	2.3937	2.2096	2.8088
-346.1	2.3933	2.2083	2.8102
-346	2.3941	2.2081	2.8126
-345.9	2.392	2.2065	2.8127
-345.8	2.393	2.2062	2.8151
-345.7	2.3931	2.2056	2.8164
-345.6	2.3933	2.2048	2.8172
-345.5	2.3941	2.2038	2.8183
-345.4	2.3919	2.2031	2.8192
-345.3	2.3915	2.2028	2.8207
-345.2	2.3932	2.202	2.8222
-345.1	2.3916	2.2016	2.8234
-345	2.3927	2.2008	2.8245
-344.9	2.3914	2.2001	2.8248
-344.8	2.3908	2.1999	2.8272
-344.7	2.3897	2.1989	2.8267
-344.6	2.3905	2.1989	2.8296
-344.5	2.3905	2.1978	2.8296
-344.4	2.3894	2.1973	2.8307
-344.3	2.3889	2.1964	2.8313
-344.2	2.3891	2.1959	2.8329
-344.1	2.3904	2.1954	2.8338
-344	2.3929	2.1952	2.8356
-343.9	2.3904	2.1939	2.8354
-343.8	2.392	2.1937	2.8371
-343.7	2.3918	2.1935	2.8387
-343.6	2.3916	2.1929	2.8396
-343.5	2.3919	2.192	2.8396
-343.4	2.3907	2.1917	2.8418
-343.3	2.3929	2.1908	2.8417
-343.2	2.3929	2.1906	2.8436
-343.1	2.391	2.1897	2.8438
-343	2.3922	2.1897	2.8454
-342.9	2.3921	2.1883	2.8448
-342.8	2.3923	2.1882	2.8467
-342.7	2.3887	2.1875	2.8483
-342.6	2.3905	2.1874	2.8489
-342.5	2.3891	2.1866	2.8497
-342.4	2.3893	2.1861	2.8505
-342.3	2.3902	2.1856	2.8508
-342.2	2.3894	2.1855	2.8529
-342.1	2.3869	2.1845	2.8529
-342	2.3869	2.1842	2.8541
-341.9	2.3865	2.1836	2.8539
-341.8	2.3853	2.1832	2.8552
-341.7	2.3847	2.1819	2.8547
-341.6	2.384	2.182	2.8557
-341.5	2.3839	2.181	2.8563
-341.4	2.3812	2.1808	2.8571
-341.3	2.3812	2.1803	2.8575
-341.2	2.3814	2.1796	2.8577
-341.1	2.3774	2.1791	2.8587
-341	2.3762	2.1784	2.8587
-340.9	2.3755	2.1778	2.8579
-340.8	2.3739	2.1776	2.8599
-340.7	2.3736	2.1771	2.8593
-340.6	2.3728	2.1773	2.8602
-340.5	2.3713	2.1757	2.8594
-340.4	2.3668	2.1763	2.8606
-340.3	2.3686	2.1758	2.8607
-340.2	2.3678	2.1752	2.8602
-340.1	2.3656	2.1749	2.8604
-340	2.3646	2.1745	2.8615
-339.9	2.3617	2.1743	2.8609
-339.8	2.3602	2.1735	2.8615
-339.7	2.3588	2.1729	2.8608
-339.6	2.3583	2.1726	2.8611
-339.5	2.3569	2.1715	2.86
-339.4	2.3553	2.1715	2.8608
-339.3	2.3526	2.1714	2.8609
-339.2	2.3529	2.1709	2.8601
-339.1	2.3512	2.1704	2.86
-339	2.3461	2.1706	2.8605
-338.9	2.3466	2.1699	2.8592
-338.8	2.3466	2.1702	2.8601
-338.7	2.3437	2.1699	2.8603
-338.6	2.3434	2.1694	2.8594
-338.5	2.3396	2.1688	2.8584
-338.4	2.3397	2.1682	2.8581
-338.3	2.3363	2.1681	2.8578
-338.2	2.3349	2.1677	2.8572
-338.1	2.3347	2.1672	2.8564
-338	2.3341	2.167	2.856
-337.9	2.3304	2.1667	2.8548
-337.8	2.3295	2.1661	2.853
-337.7	2.3304	2.1661	2.8532
-337.6	2.3274	2.1664	2.8528
-337.5	2.3235	2.1659	2.8516
-337.4	2.3252	2.1654	2.85
-337.3	2.3217	2.1655	2.8497
-337.2	2.3206	2.1651	2.8488
-337.1	2.3194	2.165	2.8475
-337	2.3189	2.165	2.8479
-336.9	2.3166	2.1643	2.8469
-336.8	2.3163	2.1637	2.8449
-336.7	2.3137	2.1637	2.8454
-336.6	2.3112	2.1631	2.8436
-336.5	2.3122	2.1629	2.843
-336.4	2.3083	2.162	2.8418
-336.3	2.3095	2.1624	2.8416
-336.2	2.3064	2.1615	2.84
-336.1	2.3066	2.1611	2.8386
-336	2.3044	2.1607	2.8373
-335.9	2.3042	2.1609	2.8369
-335.8	2.3024	2.1605	2.8352
-335.7	2.2998	2.16	2.8348
-335.6	2.3003	2.1596	2.833
-335.5	2.2988	2.1592	2.8314
-335.4	2.2976	2.1585	2.8298
-335.3	2.299	2.1586	2.8293
-335.2	2.2957	2.1586	2.8281
-335.1	2.2951	2.1576	2.8259
-335	2.293	2.1578	2.8259
-334.9	2.2913	2.1576	2.8246
-334.8	2.2908	2.157	2.8223
-334.7	2.2902	2.1575	2.8219
-334.6	2.2881	2.1574	2.8208
-334.5	2.2879	2.1566	2.8172
-334.4	2.2866	2.1562	2.816
-334.3	2.2863	2.1561	2.8145
-334.2	2.2857	2.1565	2.8143
-334.1	2.2845	2.1561	2.8117
-334	2.2822	2.1559	2.8109
-333.9	2.2818	2.1558	2.8097
-333.8	2.2803	2.1562	2.8077
-333.7	2.2818	2.1554	2.8051
-333.6	2.2806	2.1562	2.8061
-333.5	2.2795	2.1564	2.8037
-333.4	2.2789	2.1557	2.8015
-333.3	2.2774	2.1553	2.8
-333.2	2.2777	2.1556	2.7988
-333.1	2.2758	2.1556	2.7968
-333	2.2788	2.1556	2.7961
-332.9	2.2751	2.155	2.7941
-332.8	2.2724	2.1556	2.7935
-332.7	2.2743	2.1547	2.7905
-332.6	2.2767	2.1557	2.7912
-332.5	2.273	2.1555	2.7897
-332.4	2.2713	2.1555	2.7885
-332.3	2.2713	2.1557	2.7866
-332.2	2.2735	2.156	2.7865
-332.1	2.27	2.156	2.7845
-332	2.2741	2.1567	2.7848
-331.9	2.2707	2.1566	2.7832
-331.8	2.2716	2.1565	2.7817
-331.7	2.2697	2.1571	2.7808
-331.6	2.269	2.1576	2.7805
-331.5	2.2677	2.1579	2.7796
-331.4	2.2672	2.158	2.7783
-331.3	2.2673	2.1585	2.7773
-331.2	2.2677	2.1587	2.7764
-331.1	2.2674	2.159	2.775
-331	2.2688	2.1594	2.7736
-330.9	2.2693	2.1603	2.7741
-330.8	2.2658	2.1609	2.7728
-330.7	2.2671	2.1617	2.7722
-330.6	2.2664	2.1621	2.771
-330.5	2.2664	2.1633	2.7713
-330.4	2.2667	2.1633	2.7691
-330.3	2.2685	2.1643	2.7681
-330.2	2.2676	2.1646	2.7672
-330.1	2.2692	2.1657	2.7672
-330	2.2684	2.166	2.7652
-329.9	2.2659	2.1674	2.7659
-329.8	2.2687	2.1673	2.7638
-329.7	2.2693	2.1682	2.7635
-329.6	2.2687	2.1684	2.7622
-329.5	2.2687	2.1692	2.762
-329.4	2.2701	2.1702	2.7615
-329.3	2.2702	2.1713	2.7618
-329.2	2.2718	2.1712	2.7598
-329.1	2.2715	2.1728	2.7611
-329	2.2719	2.173	2.7592
-328.9	2.2704	2.1735	2.7579
-328.8	2.2725	2.1747	2.7586
-328.7	2.2731	2.1755	2.7577
-328.6	2.2735	2.1762	2.7566
-328.5	2.2725	2.1765	2.7558
-328.4	2.2733	2.1783	2.7569
-328.3	2.2754	2.1791	2.7559
-328.2	2.2752	2.1796	2.7552
-328.1	2.2761	2.1801	2.7548
-328	2.2768	2.1817	2.7553
-327.9	2.2769	2.1822	2.7541
-327.8	2.2767	2.183	2.7543
-327.7	2.2777	2.1837	2.754
-327.6	2.2778	2.1852	2.7539
-327.5	2.2786	2.1856	2.7523
-327.4	2.2815	2.1865	2.7523
-327.3	2.2819	2.1881	2.7527
-327.2	2.2844	2.1883	2.7507
-327.1	2.2846	2.1891	2.7504
-327	2.2891	2.1906	2.7515
-326.9	2.2852	2.1915	2.7501
-326.8	2.2877	2.192	2.7496
-326.7	2.2888	2.1925	2.7491
-326.6	2.2892	2.1938	2.7488
-326.5	2.288	2.1944	2.7483
-326.4	2.289	2.1955	2.7481
-326.3	2.2902	2.1962	2.7483
-326.2	2.2904	2.1967	2.7469
-326.1	2.2922	2.1974	2.7459
-326	2.2946	2.199	2.7478
-325.9	2.293	2.1997	2.747
-325.8	2.2951	2.2006	2.7461
-325.7	2.2953	2.2018	2.7469
-325.6	2.2973	2.2023	2.7461
-325.5	2.2949	2.2038	2.7461
-325.4	2.3016	2.2041	2.746
-325.3	2.2993	2.2048	2.7462
-325.2	2.2969	2.2059	2.7463
-325.1	2.2938	2.2065	2.7463
-325	2.287	2.2079	2.7475
-324.9	2.3004	2.2092	2.7487
-324.8	2.335	2.2096	2.7476
-324.7	2.3154	2.2107	2.7486
-324.6	2.2716	2.2117	2.7494
-324.5	2.2727	2.2126	2.7491
-324.4	2.2989	2.2132	2.7493
-324.3	2.3116	2.2148	2.7509
-324.2	2.3068	2.2158	2.7514
-324.1	2.293	2.2167	2.7516
-324	2.2847	2.2174	2.7515
-323.9	2.2856	2.2186	2.7523
-323.8	2.2899	2.22	2.7527
-323.7	2.2957	2.2205	2.7529
-323.6	2.2964	2.2212	2.7532
-323.5	2.3057	2.2223	2.7544
-323.4	2.3044	2.2232	2.7551
-323.3	2.2975	2.2234	2.7554
-323.2	2.3008	2.2247	2.7563
-323.1	2.298	2.2254	2.7578
-323	2.2943	2.2254	2.7574
-322.9	2.2961	2.2269	2.7587
-322.8	2.3025	2.2272	2.7599
-322.7	2.316	2.2283	2.7613
-322.6	2.3119	2.2288	2.7614
-322.5	2.3006	2.2295	2.7608
-322.4	2.3113	2.2303	2.7623
-322.3	2.3173	2.2312	2.7637
-322.2	2.308	2.2315	2.7639
-322.1	2.3003	2.232	2.7654
-322	2.3077	2.233	2.7683
-321.9	2.3252	2.2328	2.7675
-321.8	2.3308	2.2333	2.7692
-321.7	2.3184	2.2339	2.7703
-321.6	2.2979	2.2345	2.7715
-321.5	2.3089	2.2343	2.7699
-321.4	2.3181	2.2351	2.7716
-321.3	2.3179	2.2361	2.7735
-321.2	2.316	2.237	2.7738
-321.1	2.3204	2.2367	2.773
-321	2.326	2.2377	2.7747
-320.9	2.3218	2.2382	2.7749
-320.8	2.3254	2.2388	2.7759
-320.7	2.3248	2.2385	2.7759
-320.6	2.3189	2.2391	2.7782
-320.5	2.3177	2.2399	2.7799
-320.4	2.3252	2.2398	2.7789
-320.3	2.3351	2.2404	2.7813
-320.2	2.343	2.2408	2.7835
-320.1	2.3416	2.2412	2.7842
-320	2.3265	2.2407	2.7842
-319.9	2.324	2.2417	2.7871
-319.8	2.3282	2.2415	2.7868
-319.7	2.3356	2.2421	2.7891
-319.6	2.3401	2.2416	2.7896
-319.5	2.3421	2.2424	2.7918
-319.4	2.3419	2.243	2.7942
-319.3	2.3373	2.2433	2.7947
-319.2	2.3343	2.2435	2.7959
-319.1	2.3365	2.2432	2.7975
-319	2.3411	2.2442	2.8003
-318.9	2.3391	2.2441	2.8007
-318.8	2.3409	2.2447	2.8031
-318.7	2.343	2.2444	2.8028
-318.6	2.3482	2.2448	2.8027
-318.5	2.3475	2.2448	2.8025
-318.4	2.3471	2.2447	2.8025
-318.3	2.3471	2.2452	2.8034
-318.2	2.3489	2.2453	2.8036
-318.1	2.3527	2.2459	2.8035
-318	2.3582	2.2464	2.8041
-317.9	2.3553	2.2471	2.8049
-317.8	2.3492	2.2473	2.8041
-317.7	2.3497	2.2481	2.805
-317.6	2.3517	2.2479	2.8037
-317.5	2.3565	2.2486	2.8042
-317.4	2.3571	2.2493	2.8052
-317.3	2.3556	2.2495	2.8042
-317.2	2.354	2.2506	2.8047
-317.1	2.3558	2.2504	2.8035
-317	2.3546	2.2509	2.8041
-316.9	2.3567	2.2511	2.804
-316.8	2.357	2.2512	2.8048
-316.7	2.3587	2.2512	2.8056
-316.6	2.3581	2.2507	2.8056
-316.5	2.3578	2.2512	2.8068
-316.4	2.3569	2.2515	2.8078
-316.3	2.3576	2.2517	2.8086
-316.2	2.3597	2.252	2.8095
-316.1	2.364	2.2521	2.8107
-316	2.3632	2.2527	2.8129
-315.9	2.3657	2.2535	2.8151
-315.8	2.3651	2.2538	2.8152
-315.7	2.3636	2.2542	2.8162
-315.6	2.3629	2.2551	2.8184
-315.5	2.3624	2.2556	2.8193
-315.4	2.3605	2.2559	2.8201
-315.3	2.3636	2.2566	2.8215
-315.2	2.3669	2.2564	2.821
-315.1	2.3643	2.2575	2.8232
-315	2.3644	2.2575	2.8223
-314.9	2.3645	2.2574	2.8222
-314.8	2.3624	2.2587	2.8245
-314.7	2.3649	2.2591	2.8244
-314.6	2.3657	2.2594	2.8247
-314.5	2.3672	2.2596	2.8248
-314.4	2.3672	2.2604	2.8256
-314.3	2.367	2.2603	2.8253
-314.2	2.3675	2.2607	2.8251
-314.1	2.3662	2.2609	2.8245
-314	2.3643	2.2611	2.8238
-313.9	2.3644	2.2612	2.823
-313.8	2.3672	2.2623	2.8246
-313.7	2.3687	2.2625	2.8232
-313.6	2.3664	2.2627	2.8233
-313.5	2.3665	2.2632	2.8234
-313.4	2.3678	2.2642	2.8245
-313.3	2.363	2.2645	2.8245
-313.2	2.3653	2.265	2.8242
-313.1	2.3678	2.2659	2.8253
-313	2.3642	2.266	2.825
-312.9	2.3636	2.2673	2.8262
-312.8	2.3632	2.2678	2.8264
-312.7	2.363	2.2678	2.8259
-312.6	2.3639	2.2683	2.8259
-312.5	2.3645	2.2685	2.8261
-312.4	2.3609	2.2689	2.8259
-312.3	2.3627	2.2699	2.8265
-312.2	2.3652	2.2698	2.8258
-312.1	2.3639	2.2706	2.8256
-312	2.3672	2.2708	2.825
-311.9	2.3649	2.271	2.8245
-311.8	2.3646	2.2719	2.8241
-311.7	2.3611	2.2721	2.8225
-311.6	2.3631	2.2725	2.8214
-311.5	2.3627	2.2734	2.8214
-311.4	2.3624	2.2731	2.819
-311.3	2.3624	2.2741	2.819
-311.2	2.3636	2.2745	2.8177
-311.1	2.3639	2.2754	2.818
-311	2.361	2.2755	2.8164
-310.9	2.3611	2.2765	2.8161
-310.8	2.3633	2.2769	2.8162
-310.7	2.362	2.2771	2.8152
-310.6	2.3613	2.2781	2.8149
-310.5	2.363	2.2781	2.8141
-310.4	2.3601	2.2782	2.8135
-310.3	2.3594	2.2786	2.812
-310.2	2.3617	2.2789	2.8121
-310.1	2.3597	2.2783	2.8112
-310	2.3604	2.2791	2.8111
-309.9	2.3579	2.2798	2.812
-309.8	2.3601	2.2798	2.8122
-309.7	2.3606	2.2803	2.8116
-309.6	2.3604	2.281	2.8114
-309.5	2.3585	2.2806	2.8115
-309.4	2.359	2.2815	2.8116
-309.3	2.3587	2.2812	2.8101
-309.2	2.3573	2.2817	2.811
-309.1	2.3568	2.2817	2.8092
-309	2.3574	2.2824	2.8095
-308.9	2.3569	2.2825	2.8082
-308.8	2.3553	2.2827	2.8076
-308.7	2.3555	2.2827	2.8058
-308.6	2.353	2.2834	2.8053
-308.5	2.3565	2.2834	2.8054
-308.4	2.3536	2.2835	2.8042
-308.3	2.3556	2.284	2.8028
-308.2	2.3543	2.2833	2.8006
-308.1	2.3536	2.2843	2.8009
-308	2.3549	2.2843	2.798
-307.9	2.3539	2.2843	2.7973
-307.8	2.3543	2.2842	2.7956
-307.7	2.3527	2.2849	2.7955
-307.6	2.353	2.2847	2.7936
-307.5	2.3525	2.2843	2.7927
-307.4	2.353	2.284	2.7911
-307.3	2.3547	2.2841	2.7907
-307.2	2.3531	2.2836	2.7895
-307.1	2.354	2.2836	2.7886
-307	2.3527	2.2836	2.7885
-306.9	2.3514	2.283	2.7868
-306.8	2.3512	2.2829	2.7874
-306.7	2.352	2.2822	2.7856
-306.6	2.3519	2.2825	2.7862
-306.5	2.3524	2.2815	2.7846
-306.4	2.3523	2.2818	2.7849
-306.3	2.3511	2.2815	2.7848
-306.2	2.351	2.2812	2.784
-306.1	2.3514	2.2806	2.7839
-306	2.352	2.2806	2.784
-305.9	2.3515	2.2798	2.7831
-305.8	2.3503	2.2796	2.7833
-305.7	2.3524	2.2794	2.7823
-305.6	2.3508	2.2789	2.7816
-305.5	2.3499	2.2784	2.7804
-305.4	2.3514	2.2784	2.7804
-305.3	2.3511	2.2779	2.7785
-305.2	2.348	2.2771	2.7777
-305.1	2.3482	2.2775	2.778
-305	2.3495	2.2761	2.7761
-304.9	2.3488	2.276	2.7751
-304.8	2.3511	2.2752	2.7741
-304.7	2.3487	2.2742	2.7718
-304.6	2.3468	2.2746	2.7721
-304.5	2.3498	2.2737	2.7695
-304.4	2.3483	2.2736	2.7696
-304.3	2.3467	2.2723	2.7672
-304.2	2.3477	2.2725	2.7668
-304.1	2.3466	2.2713	2.7657
-304	2.3462	2.2711	2.7645
-303.9	2.3466	2.2711	2.7647
-303.8	2.3468	2.2697	2.7628
-303.7	2.3468	2.2697	2.7632
-303.6	2.3469	2.2686	2.7615
-303.5	2.3464	2.268	2.7605
-303.4	2.3468	2.2672	2.7604
-303.3	2.346	2.267	2.7594
-303.2	2.3472	2.2655	2.7578
-303.1	2.3456	2.2653	2.757
-303	2.345	2.2646	2.7562
-302.9	2.3446	2.2637	2.7543
-302.8	2.3431	2.2629	2.754
-302.7	2.3433	2.2629	2.7536
-302.6	2.3442	2.2618	2.7521
-302.5	2.3457	2.261	2.7516
-302.4	2.3422	2.26	2.7502
-302.3	2.3435	2.2591	2.7496
-302.2	2.3432	2.2583	2.7485
-302.1	2.3422	2.258	2.7488
-302	2.3411	2.2567	2.748
-301.9	2.3438	2.2561	2.7473
-301.8	2.343	2.2554	2.7468
-301.7	2.3405	2.2548	2.746
-301.6	2.3418	2.254	2.7454
-301.5	2.3394	2.2538	2.7459
-301.4	2.3415	2.2531	2.7444
-301.3	2.3401	2.252	2.7441
-301.2	2.34	2.2519	2.7454
-301.1	2.3381	2.2517	2.7452
-301	2.3383	2.2504	2.7454
-300.9	2.3398	2.2497	2.7445
-300.8	2.3383	2.2486	2.7455
-300.7	2.3372	2.2479	2.7454
-300.6	2.3367	2.2473	2.7462
-300.5	2.3369	2.2457	2.7461
-300.4	2.3355	2.2453	2.7466
-300.3	2.335	2.2444	2.7473
-300.2	2.3343	2.2432	2.7464
-300.1	2.3354	2.2432	2.7473
-300	2.3328	2.2417	2.7464
-299.9	2.3333	2.2418	2.7472
-299.8	2.334	2.2411	2.7468
-299.7	2.3322	2.2404	2.7468
-299.6	2.3314	2.24	2.7463
-299.5	2.33	2.2393	2.7469
-299.4	2.3302	2.2387	2.7463
-299.3	2.329	2.2379	2.746
-299.2	2.3296	2.2375	2.7467
-299.1	2.3269	2.2364	2.7459
-299	2.3289	2.2363	2.7469
-298.9	2.3286	2.2354	2.7469
-298.8	2.3279	2.2348	2.7477
-298.7	2.3274	2.2341	2.7466
-298.6	2.3272	2.2328	2.7467
-298.5	2.3269	2.2327	2.747
-298.4	2.3263	2.2322	2.7467
-298.3	2.3244	2.2316	2.748
-298.2	2.325	2.2315	2.7475
-298.1	2.3226	2.2307	2.7478
-298	2.322	2.2303	2.7475
-297.9	2.3224	2.2294	2.747
-297.8	2.3218	2.2292	2.7488
-297.7	2.3195	2.2285	2.7481
-297.6	2.3189	2.2282	2.7494
-297.5	2.3195	2.2277	2.7494
-297.4	2.317	2.2271	2.7504
-297.3	2.3183	2.2264	2.7502
-297.2	2.3171	2.2256	2.7503
-297.1	2.3165	2.2253	2.7507
-297	2.3163	2.2252	2.7523
-296.9	2.315	2.2246	2.7515
-296.8	2.3123	2.2241	2.7522
-296.7	2.3134	2.2242	2.7531
-296.6	2.3125	2.2235	2.7529
-296.5	2.3101	2.2236	2.7537
-296.4	2.3092	2.2228	2.7539
-296.3	2.31	2.2229	2.7549
-296.2	2.3063	2.2222	2.7553
-296.1	2.308	2.2218	2.755
-296	2.306	2.2207	2.7554
-295.9	2.3042	2.2205	2.7562
-295.8	2.3041	2.2199	2.7566
-295.7	2.3025	2.2192	2.7566
-295.6	2.3021	2.219	2.7581
-295.5	2.3018	2.2181	2.7577
-295.4	2.3008	2.2179	2.7581
-295.3	2.3009	2.2179	2.7598
-295.2	2.2988	2.2168	2.7587
-295.1	2.2985	2.2167	2.7594
-295	2.2976	2.2166	2.7607
-294.9	2.2974	2.2158	2.7605
-294.8	2.2951	2.2156	2.7615
-294.7	2.2942	2.2153	2.7625
-294.6	2.2937	2.2152	2.7633
-294.5	2.2944	2.2144	2.7639
-294.4	2.2915	2.2141	2.7642
-294.3	2.2926	2.2136	2.7652
-294.2	2.2919	2.2132	2.7665
-294.1	2.2906	2.2128	2.7669
-294	2.2908	2.2123	2.768
-293.9	2.2878	2.2118	2.768
-293.8	2.2886	2.211	2.7682
-293.7	2.2881	2.211	2.7692
-293.6	2.2874	2.2107	2.7699
-293.5	2.2838	2.2102	2.7698
-293.4	2.2851	2.2103	2.7714
-293.3	2.2845	2.2094	2.7709
-293.2	2.2822	2.2093	2.7714
-293.1	2.283	2.2091	2.7725
-293	2.2812	2.2084	2.7727
-292.9	2.279	2.2078	2.7729
-292.8	2.2794	2.2076	2.774
-292.7	2.2789	2.2068	2.7739
-292.6	2.2776	2.2064	2.7743
-292.5	2.276	2.206	2.7762
-292.4	2.2768	2.2058	2.777
-292.3	2.2725	2.2052	2.7765
-292.2	2.2727	2.2052	2.7789
-292.1	2.2732	2.2049	2.7797
-292	2.27	2.2044	2.7797
-291.9	2.2729	2.2039	2.781
-291.8	2.2716	2.2035	2.7824
-291.7	2.2712	2.2036	2.7839
-291.6	2.2693	2.2031	2.785
-291.5	2.268	2.2027	2.787
-291.4	2.2689	2.2016	2.787
-291.3	2.2683	2.202	2.7897
-291.2	2.2668	2.201	2.7904
-291.1	2.2655	2.2003	2.7918
-291	2.2653	2.1999	2.7932
-290.9	2.266	2.1992	2.7941
-290.8	2.2626	2.1988	2.7955
-290.7	2.2598	2.198	2.7967
-290.6	2.2598	2.1978	2.7968
-290.5	2.2595	2.1979	2.7988
-290.4	2.2603	2.1972	2.7989
-290.3	2.2588	2.1965	2.799
-290.2	2.2571	2.1965	2.8003
-290.1	2.2567	2.1966	2.8013
-290	2.2563	2.1957	2.8005
