Crank	TKE	EPS	Intensty
[CADaTDCF]	[m^2/s^2]	[m^2/s^3]	[m/s]
-132	16.3897	9485.62	3.30552
-131.994	16.3862	9208.69	3.30517
-131.496	16.1612	7265.92	3.28078
-130.983	15.9793	6320.14	3.25989
-130.47	15.8227	5760.64	3.24149
-129.957	15.6869	5383.3	3.22536
-129.444	15.5626	5103.44	3.21058
-128.988	15.4622	4904.33	3.19856
-128.475	15.3536	4716.32	3.18562
-127.962	15.2523	4555.78	3.17346
-127.449	15.1575	4415.48	3.16201
-126.993	15.0763	4303.19	3.15217
-126.48	14.9899	4187.8	3.1416
-125.967	14.9085	4082.07	3.13155
-125.454	14.8335	3985.21	3.12242
-124.998	14.7671	3911.97	3.11425
-124.485	14.6953	3829.08	3.10528
-123.972	14.6279	3751.97	3.09677
-123.459	14.5626	3679.5	3.0885
-122.946	14.5046	3612	3.08094
-122.49	14.453	3555.07	3.07427
-121.977	14.3956	3494.31	3.06688
-121.464	14.3424	3437.28	3.05993
-120.951	14.2918	3383.4	3.05326
-120.495	14.2476	3337.79	3.04746
-119.982	14.1993	3288.94	3.04112
-119.469	14.1534	3242.75	3.03505
-118.956	14.111	3199.23	3.02936
-118.443	14.0703	3157.95	3.02389
-117.987	14.0358	3123.06	3.01922
-117.474	13.9975	3085.37	3.01405
-116.961	13.9616	3049.66	3.00916
-116.448	13.9285	3015.9	3.00457
-115.992	13.8998	2987.25	3.0006
-115.479	13.868	2956.38	2.99624
-114.966	13.8374	2926.91	2.99202
-114.453	13.8087	2898.93	2.98803
-113.997	13.7845	2875.24	2.98465
-113.484	13.7582	2849.74	2.98096
-112.971	13.7325	2825.31	2.97737
-112.458	13.7079	2802.04	2.97393
-111.945	13.6866	2780.18	2.97081
-111.489	13.6679	2761.54	2.96811
-110.976	13.648	2741.52	2.9652
-110.463	13.6287	2722.44	2.96319
-109.95	13.6115	2705.3	2.96086
-109.494	13.5968	2691.25	2.95867
-108.981	13.5792	2676.1	2.95616
-108.468	13.5643	2661.99	2.9539
-107.955	13.5491	2648.26	2.95165
-107.499	13.5357	2636.37	2.94967
-106.986	13.524	2623.95	2.94778
-106.473	13.51	2611.5	2.9457
-105.96	13.4972	2599.64	2.94377
-105.447	13.4859	2588.43	2.94198
-104.991	13.4785	2579.25	2.94066
-104.478	13.47	2569.26	2.93917
-103.965	13.4636	2560	2.93788
-103.452	13.4558	2550.81	2.93651
-102.996	13.4508	2543.31	2.93548
-102.483	13.4445	2535.07	2.9343
-101.97	13.4376	2527.04	2.93308
-101.457	13.4328	2519.75	2.93208
-100.944	13.4295	2513.06	2.93122
-100.488	13.4263	2507.3	2.93045
-99.9754	13.4251	2501.62	2.92982
-99.4624	13.4235	2496.12	2.92918
-98.9494	13.4233	2491.14	2.92868
-98.4934	13.4215	2489.19	2.92925
-97.9804	13.4211	2485.47	2.9288
-97.4674	13.4212	2482.86	2.92842
-96.9544	13.4223	2480.86	2.92813
-96.4984	13.4243	2479.4	2.92798
-95.9854	13.427	2477.88	2.92786
-95.4724	13.4297	2476.37	2.92775
-94.9594	13.4319	2474.81	2.92761
-94.4464	13.4352	2473.55	2.92759
-93.9904	13.4391	2472.73	2.92766
-93.4774	13.4428	2471.75	2.9277
-92.9644	13.4479	2471.22	2.92788
-92.4514	13.4523	2470.66	2.92801
-91.9954	13.4565	2470.33	2.92816
-91.4824	13.4646	2470.79	2.92864
-90.9694	13.4708	2471	2.92898
-90.4564	13.4786	2471.71	2.92947
-89.9434	13.4888	2473.11	2.93019
-89.4874	13.497	2474.33	2.93077
-88.9744	13.5072	2476.04	2.93153
-88.4614	13.5197	2483.55	2.93373
-87.9645	13.5292	2486.22	2.93451
-87.4515	13.5428	2490.97	2.93564
-86.9955	13.5542	2495.41	2.93659
-86.4825	13.5706	2501.15	2.93797
-85.9695	13.5851	2506.45	2.9392
-85.4565	13.6002	2511.85	2.94049
-84.9435	13.6147	2517.06	2.94174
-84.4875	13.6299	2522.21	2.94306
-83.9745	13.6465	2527.96	2.94452
-83.4615	13.663	2533.79	2.94597
-82.9485	13.6799	2539.84	2.94749
-82.4925	13.6967	2545.68	2.949
-81.9795	13.7158	2552.44	2.95072
-81.4665	13.7348	2559.37	2.95246
-80.9535	13.7576	2567.27	2.95453
-80.4975	13.7768	2574.24	2.9563
-79.9845	13.7993	2582.54	2.95839
-79.4715	13.8231	2599.6	2.96194
-78.9746	13.8459	2609.61	2.96413
-78.4616	13.8703	2621.45	2.96645
-77.9486	13.8951	2633.75	2.96881
-77.4926	13.9175	2644.73	2.97095
-76.9796	13.9446	2657.38	2.97351
-76.4666	13.9743	2670.51	2.9763
-75.9536	14.0016	2683.11	2.9789
-75.4976	14.0256	2694.31	2.98119
-74.9846	14.0556	2707.69	2.98404
-74.4716	14.0865	2721.41	2.98697
-73.9586	14.1153	2734.93	2.98975
-73.4456	14.1481	2749.56	2.99287
-72.9896	14.1755	2762.44	2.99552
-72.4766	14.2074	2777.43	2.99859
-71.9636	14.2413	2793.23	3.00185
-71.4506	14.2742	2809.12	3.00588
-70.9537	14.3061	2838.72	3.00967
-70.4977	14.338	2857.28	3.0128
-69.9847	14.3726	2878.44	3.0162
-69.4717	14.4081	2899.75	3.01966
-68.9587	14.4438	2920.99	3.02315
-68.4457	14.4818	2942.63	3.02682
-67.9897	14.5173	2962.27	3.03024
-67.4767	14.5575	2984.6	3.0341
-66.9637	14.5962	3006.9	3.03787
-66.4507	14.6366	3029.9	3.04177
-65.9947	14.6743	3051.15	3.04541
-65.4817	14.7169	3075.55	3.04951
-64.9687	14.7579	3100.2	3.05352
-64.4557	14.8001	3125.7	3.05762
-63.9997	14.8374	3148.85	3.06126
-63.4457	14.8852	3198.97	3.06756
-62.9897	14.9255	3228.59	3.07151
-62.4767	14.9706	3262.64	3.0759
-61.9637	15.0159	3296.65	3.08031
-61.4507	15.0632	3330.92	3.08486
-60.9947	15.1041	3361.12	3.08881
-60.4817	15.1547	3396.36	3.09361
-59.9687	15.2027	3431.44	3.09823
-59.4557	15.2536	3467.78	3.10307
-58.9997	15.2957	3499.98	3.10714
-58.4867	15.3448	3537.28	3.11185
-57.9737	15.3973	3576.28	3.11684
-57.4607	15.4468	3615.65	3.1216
-56.9477	15.4973	3656.34	3.12645
-56.4508	15.547	3727.08	3.13309
-55.9948	15.5918	3771.91	3.13744
-55.4818	15.6434	3823.75	3.14239
-54.9688	15.6929	3874.88	3.14714
-54.4558	15.7433	3925.95	3.15194
-53.9998	15.7884	3971.55	3.15621
-53.4868	15.8408	4023.69	3.16114
-52.9738	15.8918	4076.22	3.16596
-52.4608	15.9423	4129.65	3.17072
-51.9478	15.9929	4184.35	3.1755
-51.4918	16.038	4234.18	3.17976
-50.9788	16.0893	4291.77	3.18458
-50.4658	16.1409	4351.09	3.18943
-49.9813	16.19	4448.78	3.19613
-49.4559	16.2399	4521.44	3.20092
-48.9999	16.2838	4588.47	3.20506
-48.4869	16.3307	4663.1	3.20946
-47.9739	16.3776	4737.09	3.21382
-47.4609	16.4247	4811.02	3.21817
-46.9479	16.4699	4884.88	3.22233
-46.4919	16.5086	4951.01	3.2259
-45.9789	16.5539	5027.15	3.23003
-45.4659	16.5961	5104.19	3.2339
-44.9529	16.6401	5183.71	3.2379
-44.4969	16.6764	5255.37	3.24123
-43.9839	16.7175	5338.28	3.24497
-43.4994	16.7553	5475.24	3.25081
-42.943	16.7946	5583.36	3.25446
-42.487	16.8247	5675.71	3.2572
-41.974	16.8569	5778.76	3.26011
-41.461	17.0586	6127.99	3.27475
-40.948	19.2476	18622	3.3702
-40.492	23.8419	66882.7	3.52413
-39.979	27.1292	96664.7	3.65669
-39.466	28.0406	85008.6	3.7373
-38.953	27.7741	66666.4	3.77836
-38.4767	27.2705	53696.7	3.7967
-37.9981	26.928	45633.3	3.8104
-37.4851	26.5918	39454.6	3.8197
-36.9721	26.2395	33645.9	3.83028
-36.4591	25.8944	30457.8	3.82864
-35.9461	25.5784	28015.6	3.82495
-35.4901	25.321	26292	3.82055
-34.9771	25.0413	24708.6	3.81393
-34.4641	24.7722	23422.1	3.80584
-33.9511	24.5121	22367.9	3.79659
-33.4951	24.2848	21586.4	3.78738
-32.9821	24.0321	20848.3	3.77603
-32.4691	23.7787	20227.1	3.76353
-31.9561	23.5242	19697.5	3.74998
-31.4431	23.2669	19238.3	3.73541
-30.9871	23.0362	18909.9	3.72559
-30.4741	22.7711	18606	3.70896
-29.9611	22.4989	18328.8	3.69115
-29.4481	22.2221	18050.2	3.67234
-28.9921	21.9739	17801	3.65495
-28.4791	21.6935	17521.4	3.63477
-27.9661	21.4129	17245	3.61407
-27.4531	21.1339	16975.5	3.59299
-26.9971	20.8883	16742.7	3.57405
-26.4841	20.6146	16488.7	3.55252
-25.9711	20.3439	16243.2	3.5308
-25.4581	20.076	16005.6	3.50889
-24.9451	19.8119	15776.5	3.48736
-24.4891	19.5778	15676.7	3.47035
-23.9761	19.3155	15497.1	3.44771
-23.4631	19.0551	15314.1	3.42474
-22.9501	18.7976	15124.2	3.40156
-22.4941	18.572	14952	3.38088
-21.9811	18.3219	14755.6	3.35757
-21.4681	18.0764	14559.2	3.3343
-20.9551	17.8355	14363.4	3.31109
-20.4991	17.6254	14190.6	3.29054
-19.9861	17.3933	13997.6	3.2675
-19.4731	17.1657	13806.5	3.24458
-18.9601	16.9429	13617.3	3.22178
-18.4471	16.7225	13514.2	3.20224
-17.9911	16.526	13360.2	3.18169
-17.4781	16.3065	13192.5	3.15841
-16.9651	16.0889	13018.4	3.13495
-16.4521	15.8733	12835.8	3.11136
-15.9961	15.6838	12667	3.09035
-15.4831	15.4732	12470	3.06667
-14.9701	15.265	12265.9	3.04293
-14.4571	15.0588	12056	3.01913
-13.9441	14.8534	11840.5	2.99517
-13.4881	14.6704	11645.4	2.97367
-12.9751	14.4652	11424.5	2.94935
-12.4621	14.2619	11202	2.92497
-11.9491	14.0604	10976.3	2.9005
-11.4931	13.8816	10812.7	2.88189
-10.9801	13.6807	10586	2.85689
-10.4671	13.4839	10356	2.83204
-9.95408	13.2913	10127	2.80743
-9.49808	13.1221	9923.51	2.78563
-8.98508	12.9323	9693.42	2.76104
-8.47208	12.7426	9461.79	2.73633
-7.95908	12.5527	9228.88	2.71148
-7.44608	12.3626	8995.23	2.68648
-6.99008	12.1929	8787.24	2.6641
-6.47708	12.0008	8553.56	2.63872
-5.96408	11.8078	8321	2.61314
-5.45108	11.6135	8090.32	2.58733
-4.99508	11.4395	7887.42	2.5642
-4.48208	11.2428	7662.4	2.538
-3.96908	11.0501	7445.4	2.51214
-3.45608	10.8584	7239.17	2.48641
-2.9836	10.6992	7073.96	2.46471
-2.49871	10.5495	6928.3	2.44425
-1.99302	10.422	6828.52	2.42672
-1.48145	10.2669	6723.39	2.40678
-0.98944	10.1267	6644.72	2.38856
-0.471185	9.98064	6596.9	2.37035
0.0481982	9.82423	6588.23	2.35237
0.553101	9.66863	6585.81	2.33415
1.03966	9.50981	6581.53	2.31528
1.55087	9.34234	6601.57	2.29559
2.00612	9.19042	6620.6	2.27757
2.51912	8.99986	6587.37	2.25408
3.03212	8.79464	6498.22	2.22775
3.53051	8.5909	6381.96	2.20106
4.04204	8.38196	6241.67	2.17322
4.55504	8.1722	6075.9	2.14464
5.01104	7.98757	5911.64	2.11895
5.52404	7.78787	5729.38	2.09076
6.03704	7.59222	5543.37	2.06277
6.55004	7.40129	5355.67	2.03504
7.00604	7.23793	5197.2	2.01104
7.51904	7.06178	5030.01	1.98486
8.03204	6.89437	4879.11	1.95971
8.54504	6.73275	4737.63	1.93521
9.03368	9.36201	51981	2.00828
9.50292	11.486	125464	2.08527
10.0312	12.2904	129409	2.13036
10.5358	12.7924	126398	2.16215
11.0301	13.1602	122467	2.18705
11.5431	13.4511	118150	2.20943
12.0561	13.7527	115784	2.23096
12.5121	14.0655	115518	2.24988
13.0251	14.4421	116314	2.27065
13.5381	14.8303	117741	2.29081
14.0511	15.2244	119533	2.31049
14.5071	15.5805	121212	2.3279
15.0225	16.5593	162884	2.35797
15.5199	17.8555	182610	2.40245
16.0193	18.9424	193416	2.44824
16.5009	19.7596	196448	2.49038
17.0017	20.5678	201929	2.53511
17.5043	21.2066	202829	2.5772
18.0089	21.7653	202510	2.61815
18.516	22.2928	202055	2.65854
19.0259	22.8282	202085	2.69933
19.5385	23.3896	202711	2.74097
20.0204	23.7865	196681	2.77759
20.5231	24.5038	230738	2.8214
21.0377	25.6795	246083	2.87275
21.5022	26.5813	253018	2.92064
22.02	27.5232	258758	2.97565
22.5401	28.4177	262851	3.03193
23.0107	29.2048	265887	3.08341
23.5364	30.0899	269313	3.14172
24.0123	30.9172	272861	3.19558
24.5442	31.8866	277532	3.25715
25.0259	32.8094	282456	3.31386
25.5104	33.7844	288102	3.37148
26.036	34.5214	301358	3.43445
26.5201	36.0263	326921	3.49052
27.0096	37.2059	335387	3.54636
27.5002	38.4031	344269	3.60433
28.0487	39.7854	355444	3.67074
28.5457	41.0619	366000	3.73139
29.0462	42.3669	376860	3.79271
29.5501	43.6983	387878	3.85496
30.0007	44.9012	397915	3.91072
30.5108	46.2733	409168	3.97402
31.0235	47.6568	420051	4.03772
31.51	48.0645	398962	4.10741
32.035	50.4868	461834	4.16914
32.547	51.8739	469452	4.22546
33.0024	53.0952	476718	4.27825
33.5152	54.4854	485619	4.33916
34.0282	55.8372	494166	4.3997
34.5412	57.1139	501731	4.45894
35.0542	58.2811	507766	4.51549
35.5102	59.2268	511870	4.56357
36.0232	60.193	515552	4.61477
36.5362	61.0647	518475	4.66297
37.0238	60.6211	461662	4.72819
37.5069	62.5508	539193	4.76377
38.0199	63.3726	543349	4.79548
38.5329	63.9635	542921	4.82781
39.0459	64.5978	543923	4.86278
39.5019	65.2085	545667	4.89551
40.0149	65.9532	548730	4.93335
40.5279	66.7375	552787	4.97149
41.0409	67.5519	557577	5.00916
41.5539	68.3806	563009	5.04579
42.0099	69.1306	568348	5.07756
42.5229	69.9713	574752	5.11171
43.0201	70.14	553455	5.16441
43.5281	72.2007	611030	5.19806
44.0411	73.0829	618613	5.2208
44.5541	73.8415	625087	5.24344
45.0101	74.4836	630538	5.26378
45.5231	75.1717	635974	5.28679
46.0361	75.8132	640539	5.30925
46.5491	76.4069	643679	5.33117
47.0051	76.8996	646279	5.34985
47.5181	77.4102	648644	5.37
48.0311	77.8617	650227	5.38857
48.5441	78.2675	651264	5.40606
49.0014	78.3848	634967	5.44077
49.5144	79.9121	675659	5.46319
50.0274	80.2567	675305	5.47353
50.5404	80.4239	673655	5.48189
51.0534	80.5193	671367	5.48955
51.5094	80.5713	668725	5.49607
52.0224	80.5743	664944	5.50269
52.5354	80.5438	660452	5.50912
53.0484	80.4591	655180	5.51471
53.5044	80.3555	650024	5.51927
54.0174	80.1976	643742	5.52369
54.5304	80.0145	637042	5.5277
55.0069	78.7256	573501	5.54191
55.5543	80.3765	639405	5.56107
56.0103	80.3238	635394	5.56249
56.5233	80.0604	628271	5.56182
57.0363	79.7491	621334	5.56049
57.5493	79.422	614577	5.55882
58.0053	79.1197	608522	5.55718
58.5183	78.7724	601990	5.55493
59.0313	78.44	595813	5.55297
59.5443	78.1113	590111	5.55075
60.0003	77.8518	585535	5.54946
60.5133	77.5757	580962	5.54796
61.0263	77.3355	577180	5.54682
61.5316	76.4579	537163	5.55837
62.0407	77.6784	583260	5.57165
62.5537	77.7231	583658	5.57236
63.0097	77.6989	583453	5.57246
63.5227	77.705	584239	5.57309
64.0357	77.7653	585648	5.57491
64.5487	77.8624	587476	5.57725
65.0047	77.9815	589550	5.57975
65.5177	78.1642	592228	5.58342
66.0307	78.3823	595235	5.5877
66.5437	78.6591	598702	5.59306
67.0567	78.9776	602554	5.599
67.5127	79.3013	606363	5.60493
68.0117	79.0183	577215	5.62267
68.5499	80.4075	613628	5.63649
69.0059	81.3996	632446	5.65055
69.5189	81.9542	638262	5.65945
70.0319	82.4487	643846	5.66732
70.5449	82.9316	649264	5.675
71.0009	83.3436	653637	5.68163
71.5139	83.7923	658071	5.68924
72.0269	84.2187	662067	5.69636
72.5399	84.6206	665690	5.70307
73.0529	84.9941	668990	5.70912
73.5089	85.3009	671727	5.71399
74.0219	85.6341	674681	5.71936
74.5349	85.9402	677391	5.72418
75.0479	86.2052	679710	5.72819
75.5082	84.7186	601620	5.72488
76.0115	87.1802	687405	5.75211
76.5245	87.6682	695824	5.75829
77.0375	87.7963	697506	5.75926
77.5505	87.8329	698591	5.75847
78.0065	87.8021	698895	5.75663
78.5195	87.6942	698336	5.75326
79.0325	87.5159	697031	5.74873
79.5455	87.2719	695035	5.74307
80.0015	87.0002	692785	5.73694
80.5145	86.6501	689919	5.7293
81.0275	86.2402	686652	5.72037
81.5405	85.7945	683166	5.7109
82.0535	85.2945	679204	5.70026
82.5095	84.8091	675318	5.69003
83.0225	84.2136	670473	5.67763
83.5036	82.0775	588966	5.65842
84.0265	83.4549	662879	5.66734
84.5395	83.0194	663581	5.65651
85.0525	82.2943	657981	5.64128
85.5085	81.5774	652201	5.62629
86.0215	80.7081	644903	5.60826
86.5345	79.7815	636791	5.58923
87.0475	78.8079	627897	5.56935
87.5035	77.9121	619369	5.55108
88.0165	76.8886	609363	5.53022
88.5295	75.8656	599253	5.50922
89.0425	74.8526	589234	5.48804
89.5555	73.8622	579421	5.46702
90.0115	73.01	570951	5.44859
90.5245	72.0883	561654	5.42837
91.0375	71.2148	552905	5.40864
91.5505	70.4016	544862	5.38981
92.0065	69.7317	538341	5.37387
92.5173	68.285	486881	5.35595
93.0255	68.9798	532541	5.35742
93.5385	68.5582	529976	5.34524
94.0515	68.057	525163	5.33173
94.5075	67.6397	521656	5.31988
95.0205	67.2077	518197	5.3071
95.5335	66.8076	514960	5.29501
96.0465	66.4334	512031	5.28351
96.5025	66.1231	509619	5.2738
97.0155	65.8013	507095	5.26349
97.5285	65.511	504782	5.25399
98.0415	65.2571	502814	5.24522
98.5545	65.0451	501256	5.23732
99.0105	64.8929	500206	5.23111
99.5235	64.7605	499426	5.22497
100.036	64.6748	499119	5.21991
100.549	64.6309	499274	5.21572
101.005	64.6273	499748	5.21288
101.518	64.6573	500618	5.21054
102.031	64.7244	501862	5.20902
102.518	63.5949	440908	5.20198
103.055	65.3174	507520	5.22155
103.511	65.7125	514962	5.22636
104.024	65.9312	516826	5.22881
104.537	66.1255	518990	5.23064
105.05	66.3136	521501	5.23225
105.506	66.4644	523496	5.23348
106.019	66.6116	525222	5.23466
106.532	66.7392	526433	5.23571
107.045	66.8521	527229	5.23676
107.501	66.9437	527709	5.23766
108.014	67.0422	528108	5.23873
108.527	67.1384	528412	5.23994
109.04	67.2362	528726	5.24123
109.553	67.3356	529042	5.24266
110.009	67.4253	529309	5.24404
110.522	67.5241	529568	5.24572
111.035	67.6249	529811	5.24764
111.548	67.7268	530054	5.24966
112.004	67.8128	530191	5.25144
