CA	pMess	dummy	dummy
[KWnZOT]	[bar]	[bar]	[bar]
-359.3	1.469787275	5	5
-359.05	1.467505539	5	5
-358.8	1.464172419	5	5
-358.55	1.459753121	5	5
-358.3	1.454308389	5	5
-358.05	1.447987282	5	5
-357.8	1.441002656	5	5
-357.55	1.433594549	5	5
-357.3	1.425989923	5	5
-357.05	1.418368366	5	5
-356.8	1.410841761	5	5
-356.55	1.403452241	5	5
-356.3	1.396187783	5	5
-356.05	1.38901001	5	5
-355.8	1.381885405	5	5
-355.55	1.374810076	5	5
-355.3	1.367819828	5	5
-355.05	1.360981354	5	5
-354.8	1.354366015	5	5
-354.55	1.348013535	5	5
-354.3	1.341897318	5	5
-354.05	1.335904356	5	5
-353.8	1.329839856	5	5
-353.55	1.323460031	5	5
-353.3	1.316527627	5	5
-353.05	1.308876426	5	5
-352.8	1.300466233	5	5
-352.55	1.291410679	5	5
-352.3	1.281966979	5	5
-352.05	1.272487477	5	5
-351.8	1.263344197	5	5
-351.55	1.254845733	5	5
-351.3	1.247168209	5	5
-351.05	1.240317864	5	5
-350.8	1.234133925	5	5
-350.55	1.228329637	5	5
-350.3	1.222560077	5	5
-350.05	1.216499914	5	5
-349.8	1.209913477	5	5
-349.55	1.202702681	5	5
-349.3	1.194924187	5	5
-349.05	1.186774097	5	5
-348.8	1.178545192	5	5
-348.55	1.170567112	5	5
-348.3	1.163143009	5	5
-348.05	1.156496174	5	5
-347.8	1.150736745	5	5
-347.55	1.145852564	5	5
-347.3	1.141721485	5	5
-347.05	1.138137317	5	5
-346.8	1.13484013	5	5
-346.55	1.131544235	5	5
-346.3	1.127962188	5	5
-346.05	1.123827913	5	5
-345.8	1.118923639	5	5
-345.55	1.113112557	5	5
-345.3	1.106373155	5	5
-345.05	1.098824945	5	5
-344.8	1.090732731	5	5
-344.55	1.082479755	5	5
-344.3	1.074508942	5	5
-344.05	1.06724277	5	5
-343.8	1.061001359	5	5
-343.55	1.055941115	5	5
-343.3	1.052031003	5	5
-343.05	1.049072222	5	5
-342.8	1.046753917	5	5
-342.55	1.044727556	5	5
-342.3	1.042679165	5	5
-342.05	1.040382119	5	5
-341.8	1.037721581	5	5
-341.55	1.034691288	5	5
-341.3	1.031370719	5	5
-341.05	1.027893778	5	5
-340.8	1.024418858	5	5
-340.55	1.021105928	5	5
-340.3	1.018101466	5	5
-340.05	1.015528465	5	5
-339.8	1.013477734	5	5
-339.55	1.011998067	5	5
-339.3	1.011085686	5	5
-339.05	1.010676064	5	5
-338.8	1.01064257	5	5
-338.55	1.010805663	5	5
-338.3	1.010953919	5	5
-338.05	1.010874783	5	5
-337.8	1.010389939	5	5
-337.55	1.009388337	5	5
-337.3	1.00784982	5	5
-337.05	1.005853847	5	5
-336.8	1.003570574	5	5
-336.55	1.001235029	5	5
-336.3	0.999108528	5	5
-336.05	0.997434267	5	5
-335.8	0.996395413	5	5
-335.55	0.996083672	5	5
-335.3	0.996484184	5	5
-335.05	0.997479223	5	5
-334.8	0.998869483	5	5
-334.55	1.000408584	5	5
-334.3	1.001844484	5	5
-334.05	1.002960712	5	5
-333.8	1.003610649	5	5
-333.55	1.003739193	5	5
-333.3	1.003388026	5	5
-333.05	1.002683492	5	5
-332.8	1.00180946	5	5
-332.55	1.00097094	5	5
-332.3	1.000356481	5	5
-332.05	1.000107574	5	5
-331.8	1.00030113	5	5
-331.55	1.000947176	5	5
-331.3	1.001999766	5	5
-331.05	1.003376097	5	5
-330.8	1.004977924	5	5
-330.55	1.006710506	5	5
-330.3	1.008496436	5	5
-330.05	1.010283829	5	5
-329.8	1.012049497	5	5
-329.55	1.013797986	5	5
-329.3	1.015557037	5	5
-329.05	1.017369823	5	5
-328.8	1.019284488	5	5
-328.55	1.021342104	5	5
-328.3	1.023564754	5	5
-328.05	1.02594585	5	5
-327.8	1.028444753	5	5
-327.55	1.030987306	5	5
-327.3	1.033473101	5	5
-327.05	1.035789202	5	5
-326.8	1.037828859	5	5
-326.55	1.039512467	5	5
-326.3	1.040807089	5	5
-326.05	1.04174037	5	5
-325.8	1.042405031	5	5
-325.55	1.042951424	5	5
-325.3	1.043567866	5	5
-325.05	1.04445132	5	5
-324.8	1.045773745	5	5
-324.55	1.047651228	5	5
-324.3	1.050122917	5	5
-324.05	1.053144673	5	5
-323.8	1.056598621	5	5
-323.55	1.06031576	5	5
-323.3	1.06410579	5	5
-323.05	1.067787401	5	5
-322.8	1.071213341	5	5
-322.55	1.074287068	5	5
-322.3	1.076970269	5	5
-322.05	1.079282322	5	5
-321.8	1.081293363	5	5
-321.55	1.083112413	5	5
-321.3	1.084871516	5	5
-321.05	1.086706539	5	5
-320.8	1.088735483	5	5
-320.55	1.091035857	5	5
-320.3	1.093623898	5	5
-320.05	1.096439789	5	5
-319.8	1.099343994	5	5
-319.55	1.102129356	5	5
-319.3	1.104550964	5	5
-319.05	1.106370873	5	5
-318.8	1.107408976	5	5
-318.55	1.107587031	5	5
-318.3	1.106952602	5	5
-318.05	1.105674546	5	5
-317.8	1.104010334	5	5
-317.55	1.102254676	5	5
-317.3	1.100684591	5	5
-317.05	1.099515826	5	5
-316.8	1.098879777	5	5
-316.55	1.098821737	5	5
-316.3	1.099314345	5	5
-316.05	1.100277434	5	5
-315.8	1.101597153	5	5
-315.55	1.103141507	5	5
-315.3	1.104773131	5	5
-315.05	1.106361507	5	5
-314.8	1.107795578	5	5
-314.55	1.108995475	5	5
-314.3	1.109920557	5	5
-314.05	1.110571156	5	5
-313.8	1.110983097	5	5
-313.55	1.111216102	5	5
-313.3	1.111338695	5	5
-313.05	1.111412811	5	5
-312.8	1.111481242	5	5
-312.55	1.111560712	5	5
-312.3	1.111642589	5	5
-312.05	1.11170185	5	5
-311.8	1.111712592	5	5
-311.55	1.111665755	5	5
-311.3	1.111582849	5	5
-311.05	1.111519652	5	5
-310.8	1.111556588	5	5
-310.55	1.11177714	5	5
-310.3	1.112240484	5	5
-310.05	1.112957475	5	5
-309.8	1.113878748	5	5
-309.55	1.114900004	5	5
-309.3	1.115883867	5	5
-309.05	1.116692077	5	5
-308.8	1.117218486	5	5
-308.55	1.117413183	5	5
-308.3	1.117291253	5	5
-308.05	1.116924631	5	5
-307.8	1.116420622	5	5
-307.55	1.115894179	5	5
-307.3	1.115442046	5	5
-307.05	1.115125361	5	5
-306.8	1.114963976	5	5
-306.55	1.114941827	5	5
-306.3	1.115019499	5	5
-306.05	1.115148598	5	5
-305.8	1.115283037	5	5
-305.55	1.115384592	5	5
-305.3	1.115422882	5	5
-305.05	1.11537232	5	5
-304.8	1.115209376	5	5
-304.55	1.114912718	5	5
-304.3	1.114466809	5	5
-304.05	1.113867554	5	5
-303.8	1.113127388	5	5
-303.55	1.112277334	5	5
-303.3	1.111364704	5	5
-303.05	1.110446672	5	5
-302.8	1.109581239	5	5
-302.55	1.108817864	5	5
-302.3	1.10819013	5	5
-302.05	1.107712386	5	5
-301.8	1.10738146	5	5
-301.55	1.107183138	5	5
-301.3	1.107101475	5	5
-301.05	1.107127496	5	5
-300.8	1.107263305	5	5
-300.55	1.107518785	5	5
-300.3	1.107900876	5	5
-300.05	1.1083991	5	5
-299.8	1.108973713	5	5
-299.55	1.109552956	5	5
-299.3	1.110042793	5	5
-299.05	1.110347274	5	5
-298.8	1.11039273	5	5
-298.55	1.110147007	5	5
-298.3	1.10962702	5	5
-298.05	1.108893034	5	5
-297.8	1.108033616	5	5
-297.55	1.10714815	5	5
-297.3	1.106332897	5	5
-297.05	1.105672703	5	5
-296.8	1.105236183	5	5
-296.55	1.105070227	5	5
-296.3	1.105191018	5	5
-296.05	1.10557255	5	5
-295.8	1.106137416	5	5
-295.55	1.106756132	5	5
-295.3	1.107259372	5	5
-295.05	1.107462965	5	5
-294.8	1.107200518	5	5
-294.55	1.106355305	5	5
-294.3	1.104882974	5	5
-294.05	1.102819668	5	5
-293.8	1.100274801	5	5
-293.55	1.097412089	5	5
-293.3	1.094424902	5	5
-293.05	1.091511943	5	5
-292.8	1.088857178	5	5
-292.55	1.086615068	5	5
-292.3	1.084899943	5	5
-292.05	1.083777542	5	5
-291.8	1.083257648	5	5
-291.55	1.083288684	5	5
-291.3	1.083757046	5	5
-291.05	1.084494773	5	5
-290.8	1.085298124	5	5
-290.55	1.085956683	5	5
-290.3	1.086288622	5	5
-290.05	1.086174187	5	5
-289.8	1.085578177	5	5
-289.55	1.084554129	5	5
-289.3	1.083228113	5	5
-289.05	1.081766586	5	5
-288.8	1.080338016	5	5
-288.55	1.079079654	5	5
-288.3	1.078077981	5	5
-288.05	1.077365475	5	5
-287.8	1.07693016	5	5
-287.55	1.076730775	5	5
-287.3	1.076710725	5	5
-287.05	1.076807282	5	5
-286.8	1.076956603	5	5
-286.55	1.077097611	5	5
-286.3	1.077177507	5	5
-286.05	1.077159309	5	5
-285.8	1.077029068	5	5
-285.55	1.076799012	5	5
-285.3	1.076503695	5	5
-285.05	1.076188829	5	5
-284.8	1.07589557	5	5
-284.55	1.075645259	5	5
-284.3	1.075429948	5	5
-284.05	1.075212363	5	5
-283.8	1.074935882	5	5
-283.55	1.074541654	5	5
-283.3	1.073987512	5	5
-283.05	1.073262601	5	5
-282.8	1.072393083	5	5
-282.55	1.071437266	5	5
-282.3	1.070471999	5	5
-282.05	1.069574828	5	5
-281.8	1.068807305	5	5
-281.55	1.068203841	5	5
-281.3	1.067768177	5	5
-281.05	1.067477034	5	5
-280.8	1.067288716	5	5
-280.55	1.067153846	5	5
-280.3	1.067025838	5	5
-280.05	1.066869623	5	5
-279.8	1.066667909	5	5
-279.55	1.066424697	5	5
-279.3	1.066165773	5	5
-279.05	1.065935868	5	5
-278.8	1.065792289	5	5
-278.55	1.065795274	5	5
-278.3	1.06599612	5	5
-278.05	1.066424959	5	5
-277.8	1.067080827	5	5
-277.55	1.067926758	5	5
-277.3	1.068892037	5	5
-277.05	1.069882218	5	5
-276.8	1.070795478	5	5
-276.55	1.071541861	5	5
-276.3	1.072060783	5	5
-276.05	1.072332275	5	5
-275.8	1.072379067	5	5
-275.55	1.072259131	5	5
-275.3	1.072050942	5	5
-275.05	1.071835525	5	5
-274.8	1.071679717	5	5
-274.55	1.071624116	5	5
-274.3	1.071677472	5	5
-274.05	1.071817576	5	5
-273.8	1.071997702	5	5
-273.55	1.072157401	5	5
-273.3	1.072236447	5	5
-273.05	1.072190401	5	5
-272.8	1.07200515	5	5
-272.55	1.071706416	5	5
-272.3	1.071359653	5	5
-272.05	1.071057272	5	5
-271.8	1.070894075	5	5
-271.55	1.070937178	5	5
-271.3	1.071200862	5	5
-271.05	1.071637287	5	5
-270.8	1.072149219	5	5
-270.55	1.072622389	5	5
-270.3	1.072966158	5	5
-270.05	1.07314637	5	5
-269.8	1.073196275	5	5
-269.55	1.073199903	5	5
-269.3	1.073253792	5	5
-269.05	1.07342227	5	5
-268.8	1.073704581	5	5
-268.55	1.074027597	5	5
-268.3	1.074267773	5	5
-268.05	1.074294741	5	5
-267.8	1.074020912	5	5
-267.55	1.073439626	5	5
-267.3	1.072638876	5	5
-267.05	1.071786217	5	5
-266.8	1.071089807	5	5
-266.55	1.070747379	5	5
-266.3	1.070897502	5	5
-266.05	1.071585624	5	5
-265.8	1.072752352	5	5
-265.55	1.074245227	5	5
-265.3	1.075849657	5	5
-265.05	1.077331151	5	5
-264.8	1.078479719	5	5
-264.55	1.079148138	5	5
-264.3	1.079277792	5	5
-264.05	1.078908151	5	5
-263.8	1.078168294	5	5
-263.55	1.077251267	5	5
-263.3	1.076374835	5	5
-263.05	1.075735444	5	5
-262.8	1.075465178	5	5
-262.55	1.075602678	5	5
-262.3	1.076086982	5	5
-262.05	1.07677754	5	5
-261.8	1.077495638	5	5
-261.55	1.078075099	5	5
-261.3	1.078406472	5	5
-261.05	1.078460993	5	5
-260.8	1.078287836	5	5
-260.55	1.07798767	5	5
-260.3	1.077673648	5	5
-260.05	1.07743432	5	5
-259.8	1.07731083	5	5
-259.55	1.077294302	5	5
-259.3	1.077341575	5	5
-259.05	1.077401357	5	5
-258.8	1.077440396	5	5
-258.55	1.077460598	5	5
-258.3	1.07750202	5	5
-258.05	1.077631528	5	5
-257.8	1.077921271	5	5
-257.55	1.078423785	5	5
-257.3	1.079151483	5	5
-257.05	1.080067148	5	5
-256.8	1.081089174	5	5
-256.55	1.082111025	5	5
-256.3	1.083029802	5	5
-256.05	1.083775364	5	5
-255.8	1.084330623	5	5
-255.55	1.084736096	5	5
-255.3	1.085076956	5	5
-255.05	1.085456704	5	5
-254.8	1.08596606	5	5
-254.55	1.086656853	5	5
-254.3	1.08752854	5	5
-254.05	1.08853039	5	5
-253.8	1.089577404	5	5
-253.55	1.090574327	5	5
-253.3	1.091440608	5	5
-253.05	1.092129794	5	5
-252.8	1.092638979	5	5
-252.55	1.093006716	5	5
-252.3	1.093300682	5	5
-252.05	1.093598774	5	5
-251.8	1.093968957	5	5
-251.55	1.094453537	5	5
-251.3	1.095062366	5	5
-251.05	1.095776852	5	5
-250.8	1.096563119	5	5
-250.55	1.097389398	5	5
-250.3	1.0982411	5	5
-250.05	1.099127702	5	5
-249.8	1.100078712	5	5
-249.55	1.101130323	5	5
-249.3	1.102308164	5	5
-249.05	1.103613165	5	5
-248.8	1.10501619	5	5
-248.55	1.106463378	5	5
-248.3	1.107889719	5	5
-248.05	1.109235345	5	5
-247.8	1.110458539	5	5
-247.55	1.111541634	5	5
-247.3	1.112489445	5	5
-247.05	1.113322907	5	5
-246.8	1.114071677	5	5
-246.55	1.114768358	5	5
-246.3	1.115444721	5	5
-246.05	1.116128425	5	5
-245.8	1.116838621	5	5
-245.55	1.117580585	5	5
-245.3	1.118341919	5	5
-245.05	1.119094105	5	5
-244.8	1.119801799	5	5
-244.55	1.120438584	5	5
-244.3	1.121003503	5	5
-244.05	1.121530362	5	5
-243.8	1.122083201	5	5
-243.55	1.122736539	5	5
-243.3	1.123545901	5	5
-243.05	1.124519501	5	5
-242.8	1.125603077	5	5
-242.55	1.12668596	5	5
-242.3	1.127628807	5	5
-242.05	1.128305216	5	5
-241.8	1.128643798	5	5
-241.55	1.128656517	5	5
-241.3	1.128443269	5	5
-241.05	1.128170329	5	5
-240.8	1.128028592	5	5
-240.55	1.128183785	5	5
-240.3	1.128733079	5	5
-240.05	1.129680345	5	5
-239.8	1.130936511	5	5
-239.55	1.132344263	5	5
-239.3	1.13371968	5	5
-239.05	1.134899425	5	5
-238.8	1.135781381	5	5
-238.55	1.136349083	5	5
-238.3	1.136674809	5	5
-238.05	1.136901382	5	5
-237.8	1.13720749	5	5
-237.55	1.137764715	5	5
-237.3	1.138696142	5	5
-237.05	1.140046014	5	5
-236.8	1.141767532	5	5
-236.55	1.143731718	5	5
-236.3	1.145755221	5	5
-236.05	1.147640179	5	5
-235.8	1.149216208	5	5
-235.55	1.150374263	5	5
-235.3	1.151084626	5	5
-235.05	1.15139577	5	5
-234.8	1.151415926	5	5
-234.55	1.151283244	5	5
-234.3	1.151132594	5	5
-234.05	1.151066928	5	5
-233.8	1.151139294	5	5
-233.55	1.151348647	5	5
-233.3	1.151649363	5	5
-233.05	1.15197141	5	5
-232.8	1.152245834	5	5
-232.55	1.152429009	5	5
-232.3	1.152519267	5	5
-232.05	1.152561206	5	5
-231.8	1.152636111	5	5
-231.55	1.152840685	5	5
-231.3	1.153259829	5	5
-231.05	1.15394114	5	5
-230.8	1.154878477	5	5
-230.55	1.156009244	5	5
-230.3	1.157225865	5	5
-230.05	1.158397697	5	5
-229.8	1.159396952	5	5
-229.55	1.160121779	5	5
-229.3	1.16051159	5	5
-229.05	1.16055281	5	5
-228.8	1.160276246	5	5
-228.55	1.159749055	5	5
-228.3	1.159064399	5	5
-228.05	1.158330852	5	5
-227.8	1.157662193	5	5
-227.55	1.157167379	5	5
-227.3	1.156940453	5	5
-227.05	1.157050865	5	5
-226.8	1.157535515	5	5
-226.55	1.158394181	5	5
-226.3	1.159589646	5	5
-226.05	1.161052761	5	5
-225.8	1.162691447	5	5
-225.55	1.164401748	5	5
-225.3	1.16607885	5	5
-225.05	1.167626555	5	5
-224.8	1.16896467	5	5
-224.55	1.170034569	5	5
-224.3	1.170803452	5	5
-224.05	1.171267391	5	5
-223.8	1.171452566	5	5
-223.55	1.171413583	5	5
-223.3	1.171228053	5	5
-223.05	1.170987531	5	5
-222.8	1.170786192	5	5
-222.55	1.170709487	5	5
-222.3	1.170825047	5	5
-222.05	1.171177256	5	5
-221.8	1.171785641	5	5
-221.55	1.172646177	5	5
-221.3	1.173734148	5	5
-221.05	1.1750075	5	5
-220.8	1.176410257	5	5
-220.55	1.177876225	5	5
-220.3	1.179333502	5	5
-220.05	1.180710245	5	5
-219.8	1.181941651	5	5
-219.55	1.182977505	5	5
-219.3	1.183789072	5	5
-219.05	1.184373862	5	5
-218.8	1.18475697	5	5
-218.55	1.184988328	5	5
-218.3	1.185136054	5	5
-218.05	1.185276813	5	5
-217.8	1.185484544	5	5
-217.55	1.185819027	5	5
-217.3	1.186315807	5	5
-217.05	1.18697921	5	5
-216.8	1.187780391	5	5
-216.55	1.188662201	5	5
-216.3	1.189551585	5	5
-216.05	1.19037816	5	5
-215.8	1.191094929	5	5
-215.55	1.191695072	5	5
-215.3	1.19221847	5	5
-215.05	1.192743909	5	5
-214.8	1.193367272	5	5
-214.55	1.194171181	5	5
-214.3	1.195195249	5	5
-214.05	1.196416896	5	5
-213.8	1.197749746	5	5
-213.55	1.199061098	5	5
-213.3	1.200203727	5	5
-213.05	1.201052804	5	5
-212.8	1.201537366	5	5
-212.55	1.201657911	5	5
-212.3	1.2014861	5	5
-212.05	1.201147599	5	5
-211.8	1.20079327	5	5
-211.55	1.200566263	5	5
-211.3	1.200572919	5	5
-211.05	1.200863971	5	5
-210.8	1.201429732	5	5
-210.55	1.202209461	5	5
-210.3	1.203111549	5	5
-210.05	1.204038626	5	5
-209.8	1.204910799	5	5
-209.55	1.20568138	5	5
-209.3	1.206342103	5	5
-209.05	1.20691803	5	5
-208.8	1.207454985	5	5
-208.55	1.208003736	5	5
-208.3	1.208605134	5	5
-208.05	1.209279469	5	5
-207.8	1.210021886	5	5
-207.55	1.210804312	5	5
-207.3	1.211583094	5	5
-207.05	1.212310568	5	5
-206.8	1.212947966	5	5
-206.55	1.213476737	5	5
-206.3	1.213905425	5	5
-206.05	1.214270133	5	5
-205.8	1.214628002	5	5
-205.55	1.215044976	5	5
-205.3	1.215580783	5	5
-205.05	1.216275034	5	5
-204.8	1.217138181	5	5
-204.55	1.218149757	5	5
-204.3	1.219264189	5	5
-204.05	1.220422345	5	5
-203.8	1.221565409	5	5
-203.55	1.222647352	5	5
-203.3	1.223643069	5	5
-203.05	1.224550822	5	5
-202.8	1.225389331	5	5
-202.55	1.226191085	5	5
-202.3	1.226993853	5	5
-202.05	1.227832105	5	5
-201.8	1.22872951	5	5
-201.55	1.229693306	5	5
-201.3	1.230711366	5	5
-201.05	1.231753069	5	5
-200.8	1.232774935	5	5
-200.55	1.233731099	5	5
-200.3	1.234586933	5	5
-200.05	1.235332183	5	5
-199.8	1.235988977	5	5
-199.55	1.236610836	5	5
-199.3	1.237271538	5	5
-199.05	1.238046322	5	5
-198.8	1.238991035	5	5
-198.55	1.240125814	5	5
-198.3	1.241428474	5	5
-198.05	1.242839389	5	5
-197.8	1.244275916	5	5
-197.55	1.245651688	5	5
-197.3	1.246895278	5	5
-197.05	1.247963589	5	5
-196.8	1.248847363	5	5
-196.55	1.249568424	5	5
-196.3	1.250170283	5	5
-196.05	1.250705149	5	5
-195.8	1.251221029	5	5
-195.55	1.251752373	5	5
-195.3	1.252316496	5	5
-195.05	1.252916036	5	5
-194.8	1.253545644	5	5
-194.55	1.254199759	5	5
-194.3	1.25487831	5	5
-194.05	1.255588493	5	5
-193.8	1.25634279	5	5
-193.55	1.257155027	5	5
-193.3	1.258036799	5	5
-193.05	1.258995779	5	5
-192.8	1.260035921	5	5
-192.55	1.261158288	5	5
-192.3	1.262360975	5	5
-192.05	1.263637525	5	5
-191.8	1.264974655	5	5
-191.55	1.266351138	5	5
-191.3	1.267739534	5	5
-191.05	1.269111033	5	5
-190.8	1.270441876	5	5
-190.55	1.271718582	5	5
-190.3	1.27293946	5	5
-190.05	1.274111547	5	5
-189.8	1.275244286	5	5
-189.55	1.27634281	5	5
-189.3	1.27740367	5	5
-189.05	1.278414483	5	5
-188.8	1.279357029	5	5
-188.55	1.280211996	5	5
-188.3	1.280963542	5	5
-188.05	1.28160276	5	5
-187.8	1.282130175	5	5
-187.55	1.282557738	5	5
-187.3	1.282910057	5	5
-187.05	1.283223603	5	5
-186.8	1.28354229	5	5
-186.55	1.283908847	5	5
-186.3	1.284353593	5	5
-186.05	1.28488444	5	5
-185.8	1.285482713	5	5
-185.55	1.286107827	5	5
-185.3	1.286710405	5	5
-185.05	1.287249477	5	5
-184.8	1.287707121	5	5
-184.55	1.288094508	5	5
-184.3	1.288446773	5	5
-184.05	1.288808882	5	5
-183.8	1.28921844	5	5
-183.55	1.289692437	5	5
-183.3	1.290222935	5	5
-183.05	1.29078275	5	5
-182.8	1.291338158	5	5
-182.55	1.291863327	5	5
-182.3	1.292351118	5	5
-182.05	1.292816857	5	5
-181.8	1.293294408	5	5
-181.55	1.293826354	5	5
-181.3	1.29445156	5	5
-181.05	1.295193714	5	5
-180.8	1.296053909	5	5
-180.55	1.297009163	5	5
-180.3	1.298017327	5	5
-180.05	1.299027247	5	5
-179.8	1.299991656	5	5
-179.55	1.300879329	5	5
-179.3	1.301683005	5	5
-179.05	1.302420616	5	5
-178.8	1.303129214	5	5
-178.55	1.303853267	5	5
-178.3	1.304630767	5	5
-178.05	1.305481391	5	5
-177.8	1.306400294	5	5
-177.55	1.307359298	5	5
-177.3	1.308314801	5	5
-177.05	1.309219564	5	5
-176.8	1.310034393	5	5
-176.55	1.310736091	5	5
-176.3	1.311319693	5	5
-176.05	1.311795331	5	5
-175.8	1.312182014	5	5
-175.55	1.312501407	5	5
-175.3	1.31277401	5	5
-175.05	1.313018477	5	5
-174.8	1.313253024	5	5
-174.55	1.313496936	5	5
-174.3	1.313770378	5	5
-174.05	1.314091931	5	5
-173.8	1.31447462	5	5
-173.55	1.314922219	5	5
-173.3	1.315427683	5	5
-173.05	1.315974902	5	5
-172.8	1.316543725	5	5
-172.55	1.317116835	5	5
-172.3	1.317685978	5	5
-172.05	1.318254764	5	5
-171.8	1.318836098	5	5
-171.55	1.319444284	5	5
-171.3	1.320084393	5	5
-171.05	1.320743367	5	5
-170.8	1.321387612	5	5
-170.55	1.32196981	5	5
-170.3	1.322444153	5	5
-170.05	1.3227854	5	5
-169.8	1.323004959	5	5
-169.55	1.323157506	5	5
-169.3	1.323334585	5	5
-169.05	1.323646022	5	5
-168.8	1.324194178	5	5
-168.55	1.325048537	5	5
-168.3	1.32622803	5	5
-168.05	1.327695884	5	5
-167.8	1.329367833	5	5
-167.55	1.33113044	5	5
-167.3	1.332863642	5	5
-167.05	1.334461125	5	5
-166.8	1.33584369	5	5
-166.55	1.336963741	5	5
-166.3	1.337802084	5	5
-166.05	1.338360428	5	5
-165.8	1.338653667	5	5
-165.55	1.338705095	5	5
-165.3	1.338545774	5	5
-165.05	1.338217064	5	5
-164.8	1.337773744	5	5
-164.55	1.337284687	5	5
-164.3	1.33682896	5	5
-164.05	1.336487042	5	5
-163.8	1.336328873	5	5
-163.55	1.336401933	5	5
-163.3	1.336722876	5	5
-163.05	1.337275364	5	5
-162.8	1.338014951	5	5
-162.55	1.338879856	5	5
-162.3	1.339804776	5	5
-162.05	1.340734109	5	5
-161.8	1.341631157	5	5
-161.55	1.342481127	5	5
-161.3	1.343287614	5	5
-161.05	1.344064277	5	5
-160.8	1.344825021	5	5
-160.55	1.345576456	5	5
-160.3	1.346315489	5	5
-160.05	1.347032747	5	5
-159.8	1.347719997	5	5
-159.55	1.348377819	5	5
-159.3	1.349019548	5	5
-159.05	1.349669008	5	5
-158.8	1.350352258	5	5
-158.55	1.351086243	5	5
-158.3	1.351868618	5	5
-158.05	1.352672746	5	5
-157.8	1.353450135	5	5
-157.55	1.354140248	5	5
-157.3	1.354685626	5	5
-157.05	1.355048965	5	5
-156.8	1.355228263	5	5
-156.55	1.355266134	5	5
-156.3	1.355249941	5	5
-156.05	1.355300707	5	5
-155.8	1.355551123	5	5
-155.55	1.356116209	5	5
-155.3	1.357063391	5	5
