vKurbelwinkel	p_Zyl_1	p_Ein	p_Aus
[KWnZOT]	[bar]	[bar]	[bar]
-360	2.8203	2.2616	2.7868
-359.9	2.8143	2.2618	2.7853
-359.8	2.8084	2.262	2.7838
-359.7	2.8024	2.2621	2.7824
-359.6	2.7964	2.2623	2.781
-359.5	2.7903	2.2625	2.7795
-359.4	2.7842	2.2626	2.7781
-359.3	2.7782	2.2628	2.7767
-359.2	2.772	2.263	2.7753
-359.1	2.7659	2.2631	2.7739
-359	2.7597	2.2632	2.7725
-358.9	2.7535	2.2634	2.7711
-358.8	2.7473	2.2635	2.7697
-358.7	2.7411	2.2637	2.7684
-358.6	2.7348	2.2638	2.767
-358.5	2.7285	2.2639	2.7657
-358.4	2.7222	2.264	2.7643
-358.3	2.7158	2.2641	2.763
-358.2	2.7095	2.2642	2.7617
-358.1	2.7031	2.2644	2.7604
-358	2.6967	2.2645	2.759
-357.9	2.6902	2.2646	2.7577
-357.8	2.6837	2.2648	2.7564
-357.7	2.6771	2.2649	2.7551
-357.6	2.6706	2.265	2.7537
-357.5	2.6639	2.2652	2.7524
-357.4	2.6572	2.2653	2.7511
-357.3	2.6505	2.2654	2.7497
-357.2	2.6438	2.2655	2.7485
-357.1	2.6372	2.2655	2.7472
-357	2.6305	2.2656	2.7459
-356.9	2.6238	2.2657	2.7447
-356.8	2.6172	2.2657	2.7436
-356.7	2.6106	2.2656	2.7424
-356.6	2.6039	2.2656	2.7414
-356.5	2.5973	2.2656	2.7403
-356.4	2.5908	2.2655	2.7394
-356.3	2.5842	2.2654	2.7385
-356.2	2.5776	2.2652	2.7376
-356.1	2.5711	2.265	2.7368
-356	2.5647	2.2648	2.736
-355.9	2.5583	2.2646	2.7353
-355.8	2.5519	2.2643	2.7346
-355.7	2.5456	2.264	2.734
-355.6	2.5395	2.2636	2.7335
-355.5	2.5333	2.2633	2.733
-355.4	2.5272	2.2629	2.7326
-355.3	2.5212	2.2626	2.7322
-355.2	2.5154	2.2622	2.7318
-355.1	2.5096	2.2618	2.7314
-355	2.5038	2.2613	2.7311
-354.9	2.4981	2.2609	2.7307
-354.8	2.4925	2.2605	2.7304
-354.7	2.487	2.26	2.7301
-354.6	2.4816	2.2595	2.7298
-354.5	2.4762	2.259	2.7294
-354.4	2.4709	2.2585	2.7292
-354.3	2.4657	2.258	2.7289
-354.2	2.4606	2.2574	2.7286
-354.1	2.4556	2.2569	2.7284
-354	2.4505	2.2563	2.7281
-353.9	2.4457	2.2557	2.7279
-353.8	2.441	2.2551	2.7277
-353.7	2.4363	2.2545	2.7275
-353.6	2.4318	2.2539	2.7273
-353.5	2.4273	2.2533	2.7273
-353.4	2.4229	2.2526	2.7272
-353.3	2.4187	2.252	2.7271
-353.2	2.4147	2.2513	2.7272
-353.1	2.4108	2.2507	2.7273
-353	2.4069	2.25	2.7274
-352.9	2.4031	2.2493	2.7277
-352.8	2.3996	2.2486	2.7281
-352.7	2.3961	2.2478	2.7284
-352.6	2.3927	2.247	2.7289
-352.5	2.3894	2.2462	2.7295
-352.4	2.3863	2.2454	2.7301
-352.3	2.3832	2.2446	2.7309
-352.2	2.3803	2.2437	2.7317
-352.1	2.3775	2.2428	2.7326
-352	2.3749	2.242	2.7335
-351.9	2.3723	2.2411	2.7345
-351.8	2.3698	2.2402	2.7357
-351.7	2.3675	2.2393	2.7368
-351.6	2.3653	2.2385	2.7381
-351.5	2.3631	2.2376	2.7393
-351.4	2.3611	2.2367	2.7406
-351.3	2.3592	2.2358	2.7418
-351.2	2.3575	2.2349	2.7431
-351.1	2.3558	2.2341	2.7445
-351	2.3543	2.2332	2.7458
-350.9	2.353	2.2323	2.7472
-350.8	2.3517	2.2313	2.7485
-350.7	2.3505	2.2304	2.7499
-350.6	2.3495	2.2295	2.7513
-350.5	2.3485	2.2285	2.7527
-350.4	2.3476	2.2276	2.7542
-350.3	2.3469	2.2267	2.7556
-350.2	2.3462	2.2257	2.757
-350.1	2.3456	2.2248	2.7585
-350	2.3451	2.2239	2.7599
-349.9	2.3447	2.223	2.7614
-349.8	2.3443	2.2221	2.7629
-349.7	2.344	2.2212	2.7644
-349.6	2.3438	2.2202	2.7659
-349.5	2.3436	2.2193	2.7674
-349.4	2.3435	2.2183	2.769
-349.3	2.3435	2.2174	2.7706
-349.2	2.3435	2.2164	2.7721
-349.1	2.3435	2.2154	2.7738
-349	2.3435	2.2144	2.7753
-348.9	2.3436	2.2134	2.777
-348.8	2.3437	2.2125	2.7787
-348.7	2.3438	2.2115	2.7803
-348.6	2.3439	2.2105	2.7819
-348.5	2.344	2.2095	2.7836
-348.4	2.3442	2.2085	2.7853
-348.3	2.3443	2.2075	2.7869
-348.2	2.3445	2.2066	2.7886
-348.1	2.3447	2.2056	2.7902
-348	2.3449	2.2047	2.7918
-347.9	2.345	2.2037	2.7934
-347.8	2.3452	2.2028	2.795
-347.7	2.3452	2.2018	2.7965
-347.6	2.3454	2.2009	2.798
-347.5	2.3455	2.1999	2.7995
-347.4	2.3456	2.199	2.8009
-347.3	2.3457	2.198	2.8022
-347.2	2.3459	2.197	2.8036
-347.1	2.3459	2.196	2.805
-347	2.3459	2.1951	2.8063
-346.9	2.346	2.1941	2.8076
-346.8	2.3459	2.1931	2.8089
-346.7	2.3459	2.1922	2.8101
-346.6	2.3457	2.1912	2.8114
-346.5	2.3455	2.1903	2.8126
-346.4	2.3454	2.1894	2.8138
-346.3	2.3454	2.1885	2.815
-346.2	2.3452	2.1876	2.8162
-346.1	2.345	2.1867	2.8174
-346	2.3449	2.1859	2.8186
-345.9	2.3448	2.185	2.8198
-345.8	2.3447	2.1841	2.821
-345.7	2.3446	2.1833	2.8223
-345.6	2.3445	2.1824	2.8236
-345.5	2.3444	2.1816	2.8248
-345.4	2.3443	2.1808	2.8261
-345.3	2.3442	2.1799	2.8274
-345.2	2.3441	2.1791	2.8287
-345.1	2.344	2.1784	2.83
-345	2.344	2.1776	2.8313
-344.9	2.3439	2.1769	2.8326
-344.8	2.3438	2.1762	2.834
-344.7	2.3438	2.1755	2.8354
-344.6	2.3437	2.1749	2.8368
-344.5	2.3437	2.1742	2.8382
-344.4	2.3437	2.1736	2.8396
-344.3	2.3437	2.173	2.841
-344.2	2.3437	2.1724	2.8424
-344.1	2.3436	2.1719	2.8438
-344	2.3435	2.1713	2.8453
-343.9	2.3435	2.1707	2.8466
-343.8	2.3435	2.1702	2.848
-343.7	2.3434	2.1696	2.8493
-343.6	2.3434	2.1691	2.8506
-343.5	2.3434	2.1685	2.8519
-343.4	2.3432	2.168	2.8531
-343.3	2.3431	2.1675	2.8543
-343.2	2.3429	2.167	2.8555
-343.1	2.3427	2.1665	2.8567
-343	2.3426	2.166	2.8578
-342.9	2.3423	2.1655	2.8589
-342.8	2.342	2.165	2.8599
-342.7	2.3417	2.1645	2.8608
-342.6	2.3413	2.164	2.8618
-342.5	2.3411	2.1635	2.8627
-342.4	2.3408	2.163	2.8634
-342.3	2.3404	2.1625	2.8643
-342.2	2.34	2.162	2.865
-342.1	2.3396	2.1614	2.8657
-342	2.3391	2.1609	2.8664
-341.9	2.3386	2.1604	2.867
-341.8	2.338	2.1598	2.8675
-341.7	2.3373	2.1593	2.868
-341.6	2.3365	2.1587	2.8684
-341.5	2.3358	2.1582	2.8688
-341.4	2.335	2.1576	2.8691
-341.3	2.3342	2.1571	2.8694
-341.2	2.3333	2.1566	2.8696
-341.1	2.3323	2.156	2.8698
-341	2.3314	2.1555	2.8699
-340.9	2.3303	2.155	2.87
-340.8	2.3293	2.1545	2.87
-340.7	2.3283	2.154	2.87
-340.6	2.3271	2.1535	2.8699
-340.5	2.326	2.153	2.8699
-340.4	2.3248	2.1525	2.8697
-340.3	2.3236	2.1521	2.8695
-340.2	2.3224	2.1516	2.8693
-340.1	2.3211	2.1511	2.869
-340	2.3199	2.1507	2.8686
-339.9	2.3187	2.1503	2.8682
-339.8	2.3175	2.1499	2.8678
-339.7	2.3162	2.1495	2.8673
-339.6	2.3149	2.1491	2.8668
-339.5	2.3136	2.1487	2.8662
-339.4	2.3122	2.1483	2.8656
-339.3	2.3109	2.148	2.865
-339.2	2.3096	2.1476	2.8644
-339.1	2.3083	2.1472	2.8636
-339	2.3069	2.1469	2.8628
-338.9	2.3055	2.1466	2.8621
-338.8	2.3042	2.1462	2.8612
-338.7	2.303	2.1459	2.8604
-338.6	2.3017	2.1456	2.8595
-338.5	2.3004	2.1452	2.8586
-338.4	2.2991	2.1449	2.8577
-338.3	2.2979	2.1446	2.8568
-338.2	2.2966	2.1443	2.8558
-338.1	2.2953	2.144	2.8548
-338	2.2939	2.1437	2.8538
-337.9	2.2926	2.1434	2.8528
-337.8	2.2914	2.1431	2.8518
-337.7	2.29	2.1429	2.8508
-337.6	2.2888	2.1426	2.8497
-337.5	2.2877	2.1423	2.8487
-337.4	2.2864	2.1421	2.8475
-337.3	2.2851	2.1418	2.8465
-337.2	2.2839	2.1415	2.8454
-337.1	2.2827	2.1413	2.8443
-337	2.2815	2.141	2.8431
-336.9	2.2803	2.1407	2.8419
-336.8	2.279	2.1405	2.8407
-336.7	2.2779	2.1402	2.8394
-336.6	2.2767	2.1399	2.8382
-336.5	2.2755	2.1397	2.8369
-336.4	2.2744	2.1394	2.8356
-336.3	2.2732	2.1391	2.8342
-336.2	2.2722	2.1388	2.8329
-336.1	2.271	2.1385	2.8315
-336	2.2699	2.1382	2.8301
-335.9	2.2688	2.1379	2.8287
-335.8	2.2678	2.1377	2.8273
-335.7	2.2667	2.1374	2.8259
-335.6	2.2656	2.1371	2.8245
-335.5	2.2645	2.1368	2.823
-335.4	2.2635	2.1366	2.8216
-335.3	2.2624	2.1363	2.8201
-335.2	2.2614	2.136	2.8187
-335.1	2.2603	2.1358	2.8173
-335	2.2593	2.1356	2.8159
-334.9	2.2584	2.1353	2.8145
-334.8	2.2575	2.1351	2.8131
-334.7	2.2566	2.1349	2.8117
-334.6	2.2556	2.1347	2.8103
-334.5	2.2547	2.1345	2.809
-334.4	2.2538	2.1343	2.8076
-334.3	2.2529	2.1341	2.8063
-334.2	2.2521	2.134	2.8049
-334.1	2.2512	2.1338	2.8036
-334	2.2503	2.1337	2.8022
-333.9	2.2494	2.1336	2.8009
-333.8	2.2487	2.1335	2.7995
-333.7	2.2479	2.1334	2.7981
-333.6	2.2472	2.1333	2.7967
-333.5	2.2465	2.1333	2.7953
-333.4	2.2457	2.1332	2.794
-333.3	2.2451	2.1332	2.7926
-333.2	2.2444	2.1331	2.7911
-333.1	2.2439	2.1331	2.7896
-333	2.2433	2.1331	2.7882
-332.9	2.2428	2.1331	2.7867
-332.8	2.2422	2.1332	2.7852
-332.7	2.2418	2.1332	2.7836
-332.6	2.2412	2.1332	2.7821
-332.5	2.2408	2.1333	2.7805
-332.4	2.2403	2.1333	2.779
-332.3	2.2399	2.1335	2.7775
-332.2	2.2396	2.1336	2.776
-332.1	2.2392	2.1337	2.7745
-332	2.2389	2.1339	2.7731
-331.9	2.2386	2.1342	2.7717
-331.8	2.2384	2.1344	2.7704
-331.7	2.2381	2.1347	2.769
-331.6	2.2377	2.1349	2.7677
-331.5	2.2376	2.1353	2.7664
-331.4	2.2374	2.1356	2.7652
-331.3	2.2372	2.1359	2.764
-331.2	2.2369	2.1363	2.7629
-331.1	2.2369	2.1367	2.7618
-331	2.2367	2.1371	2.7608
-330.9	2.2366	2.1376	2.7598
-330.8	2.2365	2.138	2.7588
-330.7	2.2366	2.1385	2.7579
-330.6	2.2365	2.139	2.757
-330.5	2.2365	2.1395	2.7562
-330.4	2.2366	2.1401	2.7554
-330.3	2.2366	2.1407	2.7546
-330.2	2.2367	2.1413	2.7539
-330.1	2.2367	2.1419	2.7531
-330	2.2368	2.1425	2.7524
-329.9	2.2369	2.1432	2.7517
-329.8	2.2371	2.1438	2.751
-329.7	2.2373	2.1445	2.7503
-329.6	2.2375	2.1452	2.7496
-329.5	2.2377	2.1459	2.7489
-329.4	2.238	2.1466	2.7483
-329.3	2.2384	2.1473	2.7476
-329.2	2.2387	2.148	2.7469
-329.1	2.2391	2.1488	2.7463
-329	2.2394	2.1495	2.7457
-328.9	2.2397	2.1503	2.7451
-328.8	2.2401	2.151	2.7445
-328.7	2.2406	2.1518	2.7439
-328.6	2.2411	2.1525	2.7433
-328.5	2.2415	2.1533	2.7427
-328.4	2.242	2.1541	2.7422
-328.3	2.2426	2.1549	2.7418
-328.2	2.2431	2.1557	2.7413
-328.1	2.2438	2.1565	2.7409
-328	2.2444	2.1573	2.7405
-327.9	2.2451	2.1582	2.7402
-327.8	2.2458	2.159	2.7398
-327.7	2.2465	2.1598	2.7394
-327.6	2.2472	2.1607	2.7391
-327.5	2.2479	2.1615	2.7389
-327.4	2.2485	2.1624	2.7387
-327.3	2.2492	2.1633	2.7385
-327.2	2.2501	2.1641	2.7383
-327.1	2.2509	2.165	2.7381
-327	2.2517	2.1659	2.738
-326.9	2.2525	2.1668	2.7379
-326.8	2.2534	2.1676	2.7378
-326.7	2.2543	2.1685	2.7378
-326.6	2.255	2.1694	2.7378
-326.5	2.256	2.1703	2.7378
-326.4	2.2572	2.1712	2.7378
-326.3	2.2582	2.1721	2.7379
-326.2	2.259	2.1729	2.738
-326.1	2.2596	2.1738	2.7381
-326	2.2606	2.1747	2.7383
-325.9	2.2622	2.1756	2.7385
-325.8	2.2639	2.1764	2.7387
-325.7	2.265	2.1773	2.739
-325.6	2.2654	2.1782	2.7393
-325.5	2.2656	2.179	2.7397
-325.4	2.2659	2.1799	2.7402
-325.3	2.2666	2.1808	2.7406
-325.2	2.2674	2.1816	2.7411
-325.1	2.2677	2.1824	2.7417
-325	2.2674	2.1833	2.7423
-324.9	2.2672	2.1842	2.7429
-324.8	2.2672	2.185	2.7436
-324.7	2.2667	2.1859	2.7443
-324.6	2.2661	2.1867	2.745
-324.5	2.2657	2.1876	2.7458
-324.4	2.2654	2.1885	2.7466
-324.3	2.2651	2.1894	2.7475
-324.2	2.2643	2.1903	2.7483
-324.1	2.2639	2.1912	2.7492
-324	2.2634	2.192	2.7501
-323.9	2.2625	2.1929	2.7511
-323.8	2.2618	2.1938	2.752
-323.7	2.2611	2.1947	2.7531
-323.6	2.2602	2.1956	2.754
-323.5	2.2596	2.1965	2.7551
-323.4	2.2592	2.1974	2.7561
-323.3	2.2593	2.1982	2.7571
-323.2	2.259	2.1991	2.7582
-323.1	2.2581	2.2	2.7592
-323	2.2577	2.2008	2.7602
-322.9	2.2582	2.2017	2.7613
-322.8	2.2589	2.2025	2.7624
-322.7	2.2593	2.2033	2.7635
-322.6	2.2596	2.2041	2.7646
-322.5	2.2604	2.2048	2.7657
-322.4	2.2614	2.2056	2.7669
-322.3	2.2619	2.2063	2.768
-322.2	2.2626	2.207	2.7691
-322.1	2.2638	2.2077	2.7702
-322	2.2655	2.2083	2.7713
-321.9	2.267	2.209	2.7724
-321.8	2.2677	2.2096	2.7734
-321.7	2.2681	2.2102	2.7745
-321.6	2.2688	2.2108	2.7755
-321.5	2.2695	2.2113	2.7765
-321.4	2.2705	2.2119	2.7775
-321.3	2.2719	2.2124	2.7784
-321.2	2.2732	2.2129	2.7794
-321.1	2.2739	2.2133	2.7804
-321	2.2745	2.2138	2.7813
-320.9	2.2755	2.2143	2.7821
-320.8	2.2764	2.2147	2.783
-320.7	2.2772	2.2151	2.7839
-320.6	2.2785	2.2155	2.7847
-320.5	2.2799	2.2159	2.7856
-320.4	2.2812	2.2163	2.7865
-320.3	2.2822	2.2167	2.7874
-320.2	2.2829	2.2171	2.7883
-320.1	2.2838	2.2174	2.7892
-320	2.2847	2.2177	2.7901
-319.9	2.2854	2.218	2.7911
-319.8	2.2863	2.2184	2.7922
-319.7	2.2872	2.2187	2.7933
-319.6	2.288	2.219	2.7944
-319.5	2.289	2.2194	2.7956
-319.4	2.2899	2.2197	2.7967
-319.3	2.2904	2.22	2.7978
-319.2	2.2909	2.2203	2.799
-319.1	2.2918	2.2206	2.8002
-319	2.2934	2.2209	2.8013
-318.9	2.2948	2.2212	2.8025
-318.8	2.2954	2.2215	2.8036
-318.7	2.2957	2.2218	2.8047
-318.6	2.2963	2.222	2.8057
-318.5	2.2974	2.2223	2.8067
-318.4	2.2982	2.2226	2.8076
-318.3	2.299	2.2229	2.8084
-318.2	2.2999	2.2232	2.8092
-318.1	2.3007	2.2235	2.8099
-318	2.3015	2.2239	2.8105
-317.9	2.3021	2.2242	2.811
-317.8	2.3027	2.2246	2.8114
-317.7	2.3034	2.2249	2.8117
-317.6	2.3039	2.2252	2.812
-317.5	2.3044	2.2256	2.8122
-317.4	2.3052	2.2259	2.8124
-317.3	2.3062	2.2263	2.8125
-317.2	2.3069	2.2266	2.8126
-317.1	2.3071	2.227	2.8127
-317	2.3073	2.2273	2.8128
-316.9	2.308	2.2276	2.8129
-316.8	2.3089	2.2279	2.813
-316.7	2.3098	2.2282	2.8132
-316.6	2.3105	2.2286	2.8135
-316.5	2.311	2.2289	2.8139
-316.4	2.3114	2.2291	2.8144
-316.3	2.3116	2.2294	2.8149
-316.2	2.3119	2.2297	2.8155
-316.1	2.3124	2.23	2.8163
-316	2.3128	2.2304	2.8171
-315.9	2.313	2.2307	2.8181
-315.8	2.3131	2.2311	2.8192
-315.7	2.3136	2.2314	2.8201
-315.6	2.3139	2.2318	2.8211
-315.5	2.3141	2.2322	2.8222
-315.4	2.3144	2.2326	2.8232
-315.3	2.3148	2.233	2.8244
-315.2	2.3154	2.2333	2.8254
-315.1	2.3159	2.2337	2.8264
-315	2.3161	2.2341	2.8274
-314.9	2.316	2.2345	2.8283
-314.8	2.3162	2.2349	2.8291
-314.7	2.3165	2.2353	2.8299
-314.6	2.317	2.2357	2.8305
-314.5	2.3174	2.2361	2.831
-314.4	2.3177	2.2365	2.8314
-314.3	2.3178	2.2369	2.8317
-314.2	2.3179	2.2373	2.8318
-314.1	2.318	2.2378	2.8317
-314	2.3182	2.2382	2.8316
-313.9	2.3184	2.2386	2.8314
-313.8	2.3185	2.2391	2.8311
-313.7	2.3186	2.2395	2.8307
-313.6	2.3185	2.2399	2.8303
-313.5	2.3184	2.2404	2.8298
-313.4	2.3183	2.2408	2.8293
-313.3	2.3181	2.2412	2.8287
-313.2	2.318	2.2416	2.8282
-313.1	2.3181	2.242	2.8276
-313	2.3181	2.2424	2.827
-312.9	2.3182	2.2428	2.8264
-312.8	2.3182	2.2432	2.8259
-312.7	2.318	2.2436	2.8254
-312.6	2.3178	2.244	2.8248
-312.5	2.3176	2.2444	2.8243
-312.4	2.3176	2.2448	2.8238
-312.3	2.3176	2.2453	2.8233
-312.2	2.3175	2.2457	2.8227
-312.1	2.3174	2.2461	2.8222
-312	2.3173	2.2466	2.8216
-311.9	2.3173	2.247	2.821
-311.8	2.3173	2.2474	2.8204
-311.7	2.3173	2.2479	2.8197
-311.6	2.3172	2.2483	2.8191
-311.5	2.3172	2.2488	2.8184
-311.4	2.3171	2.2492	2.8176
-311.3	2.317	2.2497	2.8168
-311.2	2.3168	2.2501	2.8158
-311.1	2.3167	2.2505	2.8149
-311	2.3165	2.251	2.8139
-310.9	2.3164	2.2514	2.8128
-310.8	2.3164	2.2518	2.8117
-310.7	2.3163	2.2522	2.8105
-310.6	2.3161	2.2526	2.8094
-310.5	2.3159	2.253	2.8082
-310.4	2.3158	2.2533	2.8071
-310.3	2.3157	2.2537	2.8059
-310.2	2.3156	2.2541	2.8048
-310.1	2.3154	2.2544	2.8038
-310	2.3153	2.2548	2.8028
-309.9	2.315	2.2552	2.8018
-309.8	2.3148	2.2555	2.8009
-309.7	2.3145	2.2558	2.8
-309.6	2.3143	2.2562	2.7992
-309.5	2.314	2.2565	2.7984
-309.4	2.3137	2.2568	2.7977
-309.3	2.3135	2.2571	2.7971
-309.2	2.3133	2.2573	2.7965
-309.1	2.313	2.2576	2.7959
-309	2.3128	2.2578	2.7953
-308.9	2.3124	2.2581	2.7948
-308.8	2.3122	2.2583	2.7943
-308.7	2.312	2.2585	2.7937
-308.6	2.3118	2.2587	2.7933
-308.5	2.3117	2.2589	2.7927
-308.4	2.3116	2.2591	2.7921
-308.3	2.3114	2.2592	2.7916
-308.2	2.3112	2.2594	2.791
-308.1	2.3111	2.2595	2.7903
-308	2.3109	2.2596	2.7896
-307.9	2.3108	2.2597	2.7888
-307.8	2.3107	2.2598	2.788
-307.7	2.3105	2.2599	2.7871
-307.6	2.3104	2.2599	2.7861
-307.5	2.3103	2.2599	2.7851
-307.4	2.3101	2.2599	2.7841
-307.3	2.31	2.2599	2.783
-307.2	2.3098	2.2598	2.7819
-307.1	2.3097	2.2597	2.7808
-307	2.3095	2.2596	2.7796
-306.9	2.3094	2.2594	2.7785
-306.8	2.3092	2.2592	2.7774
-306.7	2.3091	2.259	2.7763
-306.6	2.309	2.2588	2.7752
-306.5	2.309	2.2585	2.7741
-306.4	2.3089	2.2583	2.773
-306.3	2.3088	2.258	2.772
-306.2	2.3087	2.2577	2.771
-306.1	2.3085	2.2573	2.77
-306	2.3084	2.257	2.769
-305.9	2.3082	2.2567	2.7681
-305.8	2.3082	2.2563	2.7672
-305.7	2.3082	2.2559	2.7663
-305.6	2.308	2.2555	2.7654
-305.5	2.3079	2.2551	2.7646
-305.4	2.3078	2.2547	2.7638
-305.3	2.3077	2.2542	2.763
-305.2	2.3076	2.2538	2.7622
-305.1	2.3074	2.2533	2.7614
-305	2.3073	2.2529	2.7606
-304.9	2.307	2.2524	2.7597
-304.8	2.3069	2.252	2.7589
-304.7	2.3067	2.2515	2.7581
-304.6	2.3066	2.2511	2.7573
-304.5	2.3064	2.2507	2.7564
-304.4	2.3061	2.2503	2.7555
-304.3	2.306	2.2498	2.7546
-304.2	2.3058	2.2493	2.7537
-304.1	2.3056	2.2488	2.7528
-304	2.3054	2.2484	2.7519
-303.9	2.3051	2.2479	2.7509
-303.8	2.3049	2.2473	2.75
-303.7	2.3047	2.2468	2.749
-303.6	2.3046	2.2462	2.748
-303.5	2.3043	2.2456	2.7471
-303.4	2.304	2.245	2.7462
-303.3	2.3038	2.2444	2.7453
-303.2	2.3035	2.2438	2.7443
-303.1	2.3033	2.2432	2.7434
-303	2.3031	2.2426	2.7426
-302.9	2.3029	2.2419	2.7418
-302.8	2.3028	2.2413	2.741
-302.7	2.3026	2.2407	2.7403
-302.6	2.3025	2.24	2.7396
-302.5	2.3021	2.2393	2.739
-302.4	2.3018	2.2386	2.7384
-302.3	2.3016	2.2379	2.7379
-302.2	2.3013	2.2372	2.7375
-302.1	2.301	2.2364	2.7372
-302	2.3008	2.2357	2.7368
-301.9	2.3006	2.235	2.7366
-301.8	2.3004	2.2342	2.7363
-301.7	2.3001	2.2334	2.7361
-301.6	2.2997	2.2327	2.7361
-301.5	2.2995	2.2319	2.7361
-301.4	2.2992	2.2312	2.7361
-301.3	2.2988	2.2305	2.7362
-301.2	2.2985	2.2297	2.7364
-301.1	2.2982	2.229	2.7366
-301	2.2978	2.2283	2.7368
-300.9	2.2975	2.2276	2.7371
-300.8	2.2972	2.2269	2.7375
-300.7	2.2969	2.2262	2.7378
-300.6	2.2964	2.2255	2.7382
-300.5	2.2961	2.2248	2.7386
-300.4	2.2957	2.2241	2.7389
-300.3	2.2954	2.2234	2.7393
-300.2	2.2948	2.2228	2.7397
-300.1	2.2944	2.2221	2.7401
-300	2.294	2.2214	2.7404
-299.9	2.2935	2.2207	2.7407
-299.8	2.2931	2.2201	2.741
-299.7	2.2927	2.2194	2.7413
-299.6	2.2922	2.2188	2.7416
-299.5	2.2916	2.2182	2.7419
-299.4	2.2912	2.2175	2.7421
-299.3	2.2907	2.2169	2.7424
-299.2	2.2903	2.2163	2.7426
-299.1	2.2899	2.2156	2.7428
-299	2.2895	2.215	2.743
-298.9	2.2891	2.2144	2.7432
-298.8	2.2887	2.2137	2.7434
-298.7	2.2882	2.2131	2.7437
-298.6	2.2876	2.2124	2.7439
-298.5	2.2871	2.2118	2.7442
-298.4	2.2867	2.2112	2.7445
-298.3	2.2861	2.2105	2.7449
-298.2	2.2855	2.2099	2.7452
-298.1	2.2849	2.2093	2.7456
-298	2.2843	2.2087	2.7459
-297.9	2.2838	2.2081	2.7464
-297.8	2.2832	2.2075	2.7469
-297.7	2.2826	2.207	2.7474
-297.6	2.2819	2.2064	2.748
-297.5	2.2813	2.2059	2.7485
-297.4	2.2806	2.2053	2.7491
-297.3	2.28	2.2048	2.7497
-297.2	2.2795	2.2042	2.7503
-297.1	2.2789	2.2037	2.7509
-297	2.2782	2.2032	2.7515
-296.9	2.2775	2.2027	2.7521
-296.8	2.2769	2.2022	2.7527
-296.7	2.2762	2.2017	2.7534
-296.6	2.2754	2.2012	2.754
-296.5	2.2747	2.2007	2.7546
-296.4	2.2739	2.2003	2.7552
-296.3	2.2731	2.1998	2.7559
-296.2	2.2724	2.1994	2.7566
-296.1	2.2716	2.1989	2.7572
-296	2.2708	2.1985	2.7579
-295.9	2.2701	2.1981	2.7586
-295.8	2.2692	2.1977	2.7593
-295.7	2.2684	2.1973	2.76
-295.6	2.2677	2.1969	2.7607
-295.5	2.2669	2.1965	2.7615
-295.4	2.2661	2.1961	2.7622
-295.3	2.2652	2.1956	2.7631
-295.2	2.2644	2.1952	2.7639
-295.1	2.2636	2.1948	2.7648
-295	2.2628	2.1943	2.7656
-294.9	2.2621	2.1939	2.7666
-294.8	2.2613	2.1935	2.7675
-294.7	2.2604	2.1931	2.7685
-294.6	2.2596	2.1927	2.7695
-294.5	2.2588	2.1923	2.7705
-294.4	2.258	2.1919	2.7716
-294.3	2.2572	2.1915	2.7726
-294.2	2.2564	2.1911	2.7737
-294.1	2.2556	2.1908	2.7747
-294	2.2548	2.1904	2.7757
-293.9	2.254	2.19	2.7768
-293.8	2.2533	2.1896	2.7778
-293.7	2.2525	2.1891	2.7788
-293.6	2.2517	2.1887	2.7797
-293.5	2.251	2.1882	2.7807
-293.4	2.2504	2.1878	2.7816
-293.3	2.2497	2.1874	2.7825
-293.2	2.2491	2.187	2.7834
-293.1	2.2483	2.1865	2.7842
-293	2.2476	2.1861	2.7851
-292.9	2.247	2.1857	2.7858
-292.8	2.2462	2.1853	2.7866
-292.7	2.2456	2.185	2.7874
-292.6	2.2449	2.1846	2.7882
-292.5	2.2442	2.1842	2.7889
-292.4	2.2435	2.1838	2.7896
-292.3	2.2428	2.1834	2.7904
-292.2	2.2421	2.1829	2.7911
-292.1	2.2413	2.1825	2.7919
-292	2.2406	2.1821	2.7927
-291.9	2.24	2.1817	2.7934
-291.8	2.2393	2.1812	2.7942
-291.7	2.2387	2.1807	2.7949
-291.6	2.2379	2.1803	2.7957
-291.5	2.2371	2.1799	2.7966
-291.4	2.2364	2.1794	2.7974
-291.3	2.2357	2.179	2.7982
-291.2	2.2351	2.1786	2.7991
-291.1	2.2345	2.1781	2.7999
-291	2.2338	2.1777	2.8007
-290.9	2.2331	2.1773	2.8016
-290.8	2.2323	2.1769	2.8024
-290.7	2.2317	2.1765	2.8032
-290.6	2.231	2.1761	2.804
-290.5	2.2303	2.1756	2.8048
-290.4	2.2297	2.1752	2.8055
-290.3	2.2291	2.1747	2.8062
-290.2	2.2284	2.1743	2.8069
-290.1	2.2276	2.1738	2.8075
