CAD	TKE	EPS	INT		Crank	TKE	EPS	Intensty
				 	[CADaTDCF]	[m^2/s^2]	[m^2/s^3]	[m/s]
-132	16.3897	9485.62	3.30552	 	-132	16.3897	9485.62	3.30552
-131.9000549	16.34375493	8842.196641	3.300568955	 	-131.994	16.3862	9208.69	3.30517
-131.8001098	16.29859902	8452.296414	3.295674054	 	-131.496	16.1612	7265.92	3.28078
-131.7001647	16.25344311	8062.396187	3.290779153	 	-130.983	15.9793	6320.14	3.25989
-131.6002197	16.2082872	7672.49596	3.285884252	 	-130.47	15.8227	5760.64	3.24149
-131.5002746	16.16313128	7282.595733	3.280989351	 	-129.957	15.6869	5383.3	3.22536
-131.4003295	16.12727706	7089.539385	3.276884177	 	-129.444	15.5626	5103.44	3.21058
-131.3003844	16.09183845	6905.278054	3.272814289	 	-128.988	15.4622	4904.33	3.19856
-131.2004393	16.05639983	6721.016724	3.2687444	 	-128.475	15.3536	4716.32	3.18562
-131.1004942	16.02096121	6536.755393	3.264674512	 	-127.962	15.2523	4555.78	3.17346
-131.0005491	15.98552259	6352.494062	3.260604623	 	-127.449	15.1575	4415.48	3.16201
-130.9006041	15.95414756	6230.275426	3.256934668	 	-126.993	15.0763	4303.19	3.15217
-130.800659	15.923638	6121.270991	3.253349893	 	-126.48	14.9899	4187.8	3.1416
-130.7007139	15.89312845	6012.266556	3.249765118	 	-125.967	14.9085	4082.07	3.13155
-130.6007688	15.8626189	5903.262121	3.246180343	 	-125.454	14.8335	3985.21	3.12242
-130.5008237	15.83210935	5794.257686	3.242595568	 	-124.998	14.7671	3911.97	3.11425
-130.4008786	15.80440238	5709.797398	3.239316652	 	-124.485	14.6953	3829.08	3.10528
-130.3009336	15.77794518	5636.282236	3.236174129	 	-123.972	14.6279	3751.97	3.09677
-130.2009885	15.75148798	5562.767073	3.233031606	 	-123.459	14.5626	3679.5	3.0885
-130.1010434	15.72503078	5489.25191	3.229889083	 	-122.946	14.5046	3612	3.08094
-130.0010983	15.69857358	5415.736748	3.226746561	 	-122.49	14.453	3555.07	3.07427
-129.9011532	15.67336831	5352.833563	3.223751003	 	-121.977	14.3956	3494.31	3.06688
-129.8012081	15.6491516	5298.309915	3.220871493	 	-121.464	14.3424	3437.28	3.05993
-129.701263	15.62493489	5243.786267	3.217991984	 	-120.951	14.2918	3383.4	3.05326
-129.601318	15.60071817	5189.262619	3.215112474	 	-120.495	14.2476	3337.79	3.04746
-129.5013729	15.57650146	5134.738971	3.212232965	 	-119.982	14.1993	3288.94	3.04112
-129.4014278	15.55322664	5084.851067	3.209457811	 	-119.469	14.1534	3242.75	3.03505
-129.3014827	15.53122119	5041.210572	3.206823294	 	-118.956	14.111	3199.23	3.02936
-129.2015376	15.50921574	4997.570076	3.204188777	 	-118.443	14.0703	3157.95	3.02389
-129.1015925	15.48721029	4953.929581	3.201554259	 	-117.987	14.0358	3123.06	3.01922
-129.0016474	15.46520483	4910.289086	3.198919742	 	-117.474	13.9975	3085.37	3.01405
-128.9017024	15.44393114	4872.702672	3.196383214	 	-116.961	13.9616	3049.66	3.00916
-128.8017573	15.42277318	4836.073675	3.193862182	 	-116.448	13.9285	3015.9	3.00457
-128.7018122	15.40161521	4799.444678	3.19134115	 	-115.992	13.8998	2987.25	3.0006
-128.6018671	15.38045725	4762.815681	3.188820118	 	-115.479	13.868	2956.38	2.99624
-128.501922	15.35929928	4726.186684	3.186299086	 	-114.966	13.8374	2926.91	2.99202
-128.4019769	15.33918044	4693.467909	3.183889083	 	-114.453	13.8087	2898.93	2.98803
-128.3020319	15.31944469	4662.190747	3.181520014	 	-113.997	13.7845	2875.24	2.98465
-128.2020868	15.29970895	4630.913585	3.179150946	 	-113.484	13.7582	2849.74	2.98096
-128.1021417	15.2799732	4599.636424	3.176781877	 	-112.971	13.7325	2825.31	2.97737
-128.0021966	15.26023746	4568.359262	3.174412808	 	-112.458	13.7079	2802.04	2.97393
-127.9022515	15.24125876	4539.439429	3.172126432	 	-111.945	13.6866	2780.18	2.97081
-127.8023064	15.22278937	4512.105519	3.169895689	 	-111.489	13.6679	2761.54	2.96811
-127.7023613	15.20431999	4484.77161	3.167664946	 	-110.976	13.648	2741.52	2.9652
-127.6024163	15.18585061	4457.437701	3.165434203	 	-110.463	13.6287	2722.44	2.96319
-127.5024712	15.16738122	4430.103792	3.16320346	 	-109.95	13.6115	2705.3	2.96086
-127.4025261	15.14922438	4404.035798	3.161007142	 	-109.494	13.5968	2691.25	2.95867
-127.302581	15.13142714	4379.424321	3.158850432	 	-108.981	13.5792	2676.1	2.95616
-127.2026359	15.1136299	4354.812844	3.156693722	 	-108.468	13.5643	2661.99	2.9539
-127.1026908	15.09583267	4330.201367	3.154537013	 	-107.955	13.5491	2648.26	2.95165
-127.0027457	15.07803543	4305.589889	3.152380303	 	-107.499	13.5357	2636.37	2.94967
-126.9028007	15.06110853	4282.901302	3.150311507	 	-106.986	13.524	2623.95	2.94778
-126.8028556	15.04427568	4260.420477	3.148252209	 	-106.473	13.51	2611.5	2.9457
-126.7029105	15.02744282	4237.939652	3.146192912	 	-105.96	13.4972	2599.64	2.94377
-126.6029654	15.01060996	4215.458826	3.144133615	 	-105.447	13.4859	2588.43	2.94198
-126.5030203	14.99377711	4192.978001	3.142074317	 	-104.991	13.4785	2579.25	2.94066
-126.4030752	14.977694	4171.945701	3.140092994	 	-104.478	13.47	2569.26	2.93917
-126.3031301	14.96183527	4151.346882	3.138135006	 	-103.965	13.4636	2560	2.93788
-126.2031851	14.94597654	4130.748064	3.136177017	 	-103.452	13.4558	2550.81	2.93651
-126.10324	14.93011781	4110.149245	3.134219029	 	-102.996	13.4508	2543.31	2.93548
-126.0032949	14.91425907	4089.550427	3.13226104	 	-102.483	13.4445	2535.07	2.9343
-125.9033498	14.89919442	4070.052149	3.1304172	 	-101.97	13.4376	2527.04	2.93308
-125.8034047	14.88458256	4051.181426	3.128638451	 	-101.457	13.4328	2519.75	2.93208
-125.7034596	14.86997071	4032.310703	3.126859701	 	-100.944	13.4295	2513.06	2.93122
-125.6035146	14.85535885	4013.43998	3.125080951	 	-100.488	13.4263	2507.3	2.93045
-125.5035695	14.840747	3994.569257	3.123302201	 	-99.9754	13.4251	2501.62	2.92982
-125.4036244	14.8261646	3977.118969	3.121517437	 	-99.4624	13.4235	2496.12	2.92918
-125.3036793	14.8116112	3961.066385	3.119726754	 	-98.9494	13.4233	2491.14	2.92868
-125.2037342	14.79705779	3945.013802	3.117936071	 	-98.4934	13.4215	2489.19	2.92925
-125.1037891	14.78250438	3928.961219	3.116145389	 	-97.9804	13.4211	2485.47	2.9288
-125.003844	14.76795097	3912.908635	3.114354706	 	-97.4674	13.4212	2482.86	2.92842
-124.903899	14.75392952	3896.765252	3.112604607	 	-96.9544	13.4223	2480.86	2.92813
-124.8039539	14.73994111	3880.616231	3.11085703	 	-96.4984	13.4243	2479.4	2.92798
-124.7040088	14.72595269	3864.467209	3.109109452	 	-95.9854	13.427	2477.88	2.92786
-124.6040637	14.71196428	3848.318188	3.107361874	 	-95.4724	13.4297	2476.37	2.92775
-124.5041186	14.69797586	3832.169166	3.105614296	 	-94.9594	13.4319	2474.81	2.92761
-124.4041735	14.68468069	3816.930821	3.103939194	 	-94.4464	13.4352	2473.55	2.92759
-124.3042284	14.67154951	3801.907886	3.102281236	 	-93.9904	13.4391	2472.73	2.92766
-124.2042834	14.65841832	3786.884951	3.100623278	 	-93.4774	13.4428	2471.75	2.9277
-124.1043383	14.64528713	3771.862016	3.098965319	 	-92.9644	13.4479	2471.22	2.92788
-124.0043932	14.63215595	3756.839082	3.097307361	 	-92.4514	13.4523	2470.66	2.92801
-123.9044481	14.61930129	3742.427143	3.095681006	 	-91.9954	13.4565	2470.33	2.92816
-123.804503	14.60657923	3728.308195	3.094069805	 	-91.4824	13.4646	2470.79	2.92864
-123.7045579	14.59385718	3714.189247	3.092458605	 	-90.9694	13.4708	2471	2.92898
-123.6046129	14.58113512	3700.070299	3.090847404	 	-90.4564	13.4786	2471.71	2.92947
-123.5046678	14.56841307	3685.951351	3.089236204	 	-89.9434	13.4888	2473.11	2.93019
-123.4047227	14.55646338	3672.358247	3.087700124	 	-89.4874	13.497	2474.33	2.93077
-123.3047776	14.54516355	3659.207578	3.086227249	 	-88.9744	13.5072	2476.04	2.93153
-123.2048325	14.53386371	3646.056909	3.084754374	 	-88.4614	13.5197	2483.55	2.93373
-123.1048874	14.52256388	3632.90624	3.083281499	 	-87.9645	13.5292	2486.22	2.93451
-123.0049423	14.51126405	3619.755571	3.081808624	 	-87.4515	13.5428	2490.97	2.93564
-122.9049973	14.49996022	3606.880951	3.080340245	 	-86.9955	13.5542	2495.41	2.93659
-122.8050522	14.48865064	3594.403158	3.078878329	 	-86.4825	13.5706	2501.15	2.93797
-122.7051071	14.47734106	3581.925365	3.077416413	 	-85.9695	13.5851	2506.45	2.9392
-122.605162	14.46603149	3569.447571	3.075954497	 	-85.4565	13.6002	2511.85	2.94049
-122.5052169	14.45472191	3556.969778	3.074492581	 	-84.9435	13.6147	2517.06	2.94174
-122.4052718	14.44351969	3545.034749	3.073049452	 	-84.4875	13.6299	2522.21	2.94306
-122.3053267	14.43233675	3533.197199	3.071609697	 	-83.9745	13.6465	2527.96	2.94452
-122.2053817	14.42115382	3521.359648	3.070169942	 	-83.4615	13.663	2533.79	2.94597
-122.1054366	14.40997088	3509.522098	3.068730188	 	-82.9485	13.6799	2539.84	2.94749
-122.0054915	14.39878794	3497.684547	3.067290433	 	-82.4925	13.6967	2545.68	2.949
-121.9055464	14.38819	3486.366533	3.065911964	 	-81.9795	13.7158	2552.44	2.95072
-121.8056013	14.37782532	3475.255679	3.064557932	 	-81.4665	13.7348	2559.37	2.95246
-121.7056562	14.36746065	3464.144824	3.0632039	 	-80.9535	13.7576	2567.27	2.95453
-121.6057111	14.35709597	3453.03397	3.061849868	 	-80.4975	13.7768	2574.24	2.9563
-121.5057661	14.3467313	3441.923116	3.060495837	 	-79.9845	13.7993	2582.54	2.95839
-121.405821	14.33666148	3431.169501	3.059173559	 	-79.4715	13.8231	2599.6	2.96194
-121.3058759	14.32680335	3420.672345	3.057874078	 	-78.9746	13.8459	2609.61	2.96413
-121.2059308	14.31694522	3410.175189	3.056574597	 	-78.4616	13.8703	2621.45	2.96645
-121.1059857	14.30708709	3399.678033	3.055275117	 	-77.9486	13.8951	2633.75	2.96881
-121.0060406	14.29722896	3389.180876	3.053975636	 	-77.4926	13.9175	2644.73	2.97095
-120.9060956	14.28744742	3378.90857	3.052688847	 	-76.9796	13.9446	2657.38	2.97351
-120.8061505	14.27775976	3368.91187	3.051417616	 	-76.4666	13.9743	2670.51	2.9763
-120.7062054	14.2680721	3358.91517	3.050146384	 	-75.9536	14.0016	2683.11	2.9789
-120.6062603	14.25838444	3348.91847	3.048875153	 	-75.4976	14.0256	2694.31	2.98119
-120.5063152	14.24869678	3338.921769	3.047603922	 	-74.9846	14.0556	2707.69	2.98404
-120.4063701	14.23925532	3329.350294	3.046364652	 	-74.4716	14.0865	2721.41	2.98697
-120.306425	14.22984528	3319.833106	3.045129463	 	-73.9586	14.1153	2734.93	2.98975
-120.20648	14.22043525	3310.315918	3.043894275	 	-73.4456	14.1481	2749.56	2.99287
-120.1065349	14.21102521	3300.79873	3.042659086	 	-72.9896	14.1755	2762.44	2.99552
-120.0065898	14.20161518	3291.281542	3.041423897	 	-72.4766	14.2074	2777.43	2.99859
-119.9066447	14.19255768	3282.155085	3.040228369	 	-71.9636	14.2413	2793.23	3.00185
-119.8066996	14.18361523	3273.156131	3.039045783	 	-71.4506	14.2742	2809.12	3.00588
-119.7067545	14.17467277	3264.157177	3.037863197	 	-70.9537	14.3061	2838.72	3.00967
-119.6068094	14.16573032	3255.158223	3.036680611	 	-70.4977	14.338	2857.28	3.0128
-119.5068644	14.15678786	3246.159269	3.035498025	 	-69.9847	14.3726	2878.44	3.0162
-119.4069193	14.14826896	3237.483425	3.034361424	 	-69.4717	14.4081	2899.75	3.01966
-119.3069742	14.14000839	3229.004653	3.033252872	 	-68.9587	14.4438	2920.99	3.02315
-119.2070291	14.13174782	3220.52588	3.032144319	 	-68.4457	14.4818	2942.63	3.02682
-119.107084	14.12348726	3212.047108	3.031035766	 	-67.9897	14.5173	2962.27	3.03024
-119.0071389	14.11522669	3203.568336	3.029927214	 	-67.4767	14.5575	2984.6	3.0341
-118.9071938	14.10712786	3195.302675	3.028839591	 	-66.9637	14.5962	3006.9	3.03787
-118.8072488	14.09919849	3187.26031	3.0277739	 	-66.4507	14.6366	3029.9	3.04177
-118.7073037	14.09126912	3179.217945	3.026708209	 	-65.9947	14.6743	3051.15	3.04541
-118.6073586	14.08333976	3171.17558	3.025642518	 	-65.4817	14.7169	3075.55	3.04951
-118.5074135	14.07541039	3163.133216	3.024576826	 	-64.9687	14.7579	3100.2	3.05352
-118.4074684	14.06761176	3155.231367	3.023526113	 	-64.4557	14.8001	3125.7	3.05762
-118.3075233	14.06005012	3147.584253	3.022502553	 	-63.9997	14.8374	3148.85	3.06126
-118.2075783	14.05248849	3139.937139	3.021478992	 	-63.4457	14.8852	3198.97	3.06756
-118.1076332	14.04492685	3132.290025	3.020455432	 	-62.9897	14.9255	3228.59	3.07151
-118.0076881	14.03736522	3124.642911	3.019431871	 	-62.4767	14.9706	3262.64	3.0759
-117.907743	14.02988276	3117.237005	3.01842125	 	-61.9637	15.0159	3296.65	3.08031
-117.8077979	14.02242097	3109.894061	3.017414006	 	-61.4507	15.0632	3330.92	3.08486
-117.7078528	14.01495919	3102.551117	3.016406762	 	-60.9947	15.1041	3361.12	3.08881
-117.6079077	14.0074974	3095.208173	3.015399519	 	-60.4817	15.1547	3396.36	3.09361
-117.5079627	14.00003561	3087.865229	3.014392275	 	-59.9687	15.2027	3431.44	3.09823
-117.4080176	13.99288252	3080.776954	3.013421045	 	-59.4557	15.2536	3467.78	3.10307
-117.3080725	13.98588831	3073.819763	3.012468352	 	-58.9997	15.2957	3499.98	3.10714
-117.2081274	13.9788941	3066.862572	3.011515659	 	-58.4867	15.3448	3537.28	3.11185
-117.1081823	13.97189989	3059.905381	3.010562966	 	-57.9737	15.3973	3576.28	3.11684
-117.0082372	13.96490569	3052.94819	3.009610273	 	-57.4607	15.4468	3615.65	3.1216
-116.9082921	13.95819916	3046.191351	3.008688403	 	-56.9477	15.4973	3656.34	3.12645
-116.8083471	13.95175046	3039.614068	3.007794158	 	-56.4508	15.547	3727.08	3.13309
-116.708402	13.94530176	3033.036785	3.006899912	 	-55.9948	15.5918	3771.91	3.13744
-116.6084569	13.93885307	3026.459502	3.006005667	 	-55.4818	15.6434	3823.75	3.14239
-116.5085118	13.93240437	3019.882219	3.005111421	 	-54.9688	15.6929	3874.88	3.14714
-116.4085667	13.92601812	3013.422449	3.004226688	 	-54.4558	15.7433	3925.95	3.15194
-116.3086216	13.91972772	3007.143004	3.003356552	 	-53.9998	15.7884	3971.55	3.15621
-116.2086766	13.91343732	3000.86356	3.002486416	 	-53.4868	15.8408	4023.69	3.16114
-116.1087315	13.90714691	2994.584115	3.001616281	 	-52.9738	15.8918	4076.22	3.16596
-116.0087864	13.90085651	2988.304671	3.000746145	 	-52.4608	15.9423	4129.65	3.17072
-115.9088413	13.89464513	2982.245889	2.999893232	 	-51.9478	15.9929	4184.35	3.1755
-115.8088962	13.88844971	2976.231649	2.999043796	 	-51.4918	16.038	4234.18	3.17976
-115.7089511	13.88225428	2970.21741	2.99819436	 	-50.9788	16.0893	4291.77	3.18458
-115.609006	13.87605885	2964.203171	2.997344925	 	-50.4658	16.1409	4351.09	3.18943
-115.509061	13.86986343	2958.188931	2.996495489	 	-49.9813	16.19	4448.78	3.19613
-115.4091159	13.86383147	2952.365409	2.995665125	 	-49.4559	16.2399	4521.44	3.20092
-115.3091708	13.85786984	2946.623924	2.994842964	 	-48.9999	16.2838	4588.47	3.20506
-115.2092257	13.8519082	2940.882439	2.994020804	 	-48.4869	16.3307	4663.1	3.20946
-115.1092806	13.84594656	2935.140955	2.993198644	 	-47.9739	16.3776	4737.09	3.21382
-115.0093355	13.83998493	2929.39947	2.992376483	 	-47.4609	16.4247	4811.02	3.21817
-114.9093904	13.83423295	2923.822407	2.991579703	 	-46.9479	16.4699	4884.88	3.22233
-114.8094454	13.82864149	2918.371211	2.990802353	 	-46.4919	16.5086	4951.01	3.2259
-114.7095003	13.82305002	2912.920015	2.990025002	 	-45.9789	16.5539	5027.15	3.23003
-114.6095552	13.81745855	2907.468819	2.989247651	 	-45.4659	16.5961	5104.19	3.2339
-114.5096101	13.81186708	2902.017623	2.988470301	 	-44.9529	16.6401	5183.71	3.2379
-114.409665	13.8064002	2896.678672	2.987708789	 	-44.4969	16.6764	5255.37	3.24123
-114.3097199	13.8010961	2891.486349	2.986967968	 	-43.9839	16.7175	5338.28	3.24497
-114.2097748	13.795792	2886.294027	2.986227147	 	-43.4994	16.7553	5475.24	3.25081
-114.1098298	13.7904879	2881.101704	2.985486326	 	-42.943	16.7946	5583.36	3.25446
-114.0098847	13.78518379	2875.909382	2.984745505	 	-42.487	16.8247	5675.71	3.2572
-113.9099396	13.78003667	2870.912436	2.984023776	 	-41.974	16.8569	5778.76	3.26011
-113.8099945	13.77491278	2865.944405	2.983304873	 	-41.461	17.0586	6127.99	3.27475
-113.7100494	13.76978889	2860.976375	2.98258597	 	-40.948	19.2476	18622	3.3702
-113.6101043	13.764665	2856.008344	2.981867066	 	-40.492	23.8419	66882.7	3.52413
-113.5101593	13.75954111	2851.040314	2.981148163	 	-39.979	27.1292	96664.7	3.65669
-113.4102142	13.75450352	2846.226183	2.980443643	 	-39.466	28.0406	85008.6	3.7373
-113.3102691	13.74949652	2841.466615	2.979744222	 	-38.953	27.7741	66666.4	3.77836
-113.210324	13.74448953	2836.707047	2.979044801	 	-38.4767	27.2705	53696.7	3.7967
-113.1103789	13.73948253	2831.947479	2.978345381	 	-37.9981	26.928	45633.3	3.8104
-113.0104338	13.73447553	2827.187911	2.97764596	 	-37.4851	26.5918	39454.6	3.8197
-112.9104887	13.72959829	2822.565172	2.976964233	 	-36.9721	26.2395	33645.9	3.83028
-112.8105437	13.7248056	2818.0316	2.976294035	 	-36.4591	25.8944	30457.8	3.82864
-112.7105986	13.72001291	2813.498029	2.975623838	 	-35.9461	25.5784	28015.6	3.82495
-112.6106535	13.71522023	2808.964457	2.974953641	 	-35.4901	25.321	26292	3.82055
-112.5107084	13.71042754	2804.430886	2.974283444	 	-34.9771	25.0413	24708.6	3.81393
-112.4107633	13.70593871	2800.027146	2.973642713	 	-34.4641	24.7722	23422.1	3.80584
-112.3108182	13.70178894	2795.768278	2.973034859	 	-33.9511	24.5121	22367.9	3.79659
-112.2108731	13.69763918	2791.509409	2.972427006	 	-33.4951	24.2848	21586.4	3.78738
-112.1109281	13.69348941	2787.250541	2.971819153	 	-32.9821	24.0321	20848.3	3.77603
-112.010983	13.68933964	2782.991672	2.9712113	 	-32.4691	23.7787	20227.1	3.76353
-111.9110379	13.68520726	2778.791724	2.970608909	 	-31.9561	23.5242	19697.5	3.74998
-111.8110928	13.68110863	2774.70625	2.970017128	 	-31.4431	23.2669	19238.3	3.73541
-111.7111477	13.67701001	2770.620775	2.969425348	 	-30.9871	23.0362	18909.9	3.72559
-111.6112026	13.67291138	2766.535301	2.968833568	 	-30.4741	22.7711	18606	3.70896
-111.5112576	13.66881275	2762.449826	2.968241788	 	-29.9611	22.4989	18328.8	3.69115
-111.4113125	13.66488639	2758.508217	2.967669316	 	-29.4481	22.2221	18050.2	3.67234
-111.3113674	13.66100938	2754.607826	2.967102376	 	-28.9921	21.9739	17801	3.65495
-111.2114223	13.65713237	2750.707435	2.966535436	 	-28.4791	21.6935	17521.4	3.63477
-111.1114772	13.65325535	2746.807044	2.965968496	 	-27.9661	21.4129	17245	3.61407
-111.0115321	13.64937834	2742.906653	2.965401556	 	-27.4531	21.1339	16975.5	3.59299
-110.911587	13.64557667	2739.12429	2.964947622	 	-26.9971	20.8883	16742.7	3.57405
-110.811642	13.64181655	2735.407034	2.964556024	 	-26.4841	20.6146	16488.7	3.55252
-110.7116969	13.63805643	2731.689778	2.964164426	 	-25.9711	20.3439	16243.2	3.5308
-110.6117518	13.63429631	2727.972523	2.963772829	 	-25.4581	20.076	16005.6	3.50889
-110.5118067	13.6305362	2724.255267	2.963381231	 	-24.9451	19.8119	15776.5	3.48736
-110.4118616	13.62698542	2720.7314	2.962957734	 	-24.4891	19.5778	15676.7	3.47035
-110.3119165	13.62363443	2717.392104	2.962503792	 	-23.9761	19.3155	15497.1	3.44771
-110.2119714	13.62028345	2714.052808	2.962049851	 	-23.4631	19.0551	15314.1	3.42474
-110.1120264	13.61693246	2710.713512	2.961595909	 	-22.9501	18.7976	15124.2	3.40156
-110.0120813	13.61358148	2707.374216	2.961141968	 	-22.4941	18.572	14952	3.38088
-109.9121362	13.61027939	2704.133363	2.960678154	 	-21.9811	18.3219	14755.6	3.35757
-109.8121911	13.60705748	2701.053914	2.960198155	 	-21.4681	18.0764	14559.2	3.3343
-109.712246	13.60383556	2697.974466	2.959718155	 	-20.9551	17.8355	14363.4	3.31109
-109.6123009	13.60061365	2694.895018	2.959238156	 	-20.4991	17.6254	14190.6	3.29054
-109.5123558	13.59739173	2691.815569	2.958758156	 	-19.9861	17.3933	13997.6	3.2675
-109.4124108	13.59400084	2688.840493	2.958270801	 	-19.4731	17.1657	13806.5	3.24458
-109.3124657	13.59057192	2685.888899	2.957781791	 	-18.9601	16.9429	13617.3	3.22178
-109.2125206	13.58714301	2682.937304	2.957292781	 	-18.4471	16.7225	13514.2	3.20224
-109.1125755	13.58371409	2679.985709	2.956803771	 	-17.9911	16.526	13360.2	3.18169
-109.0126304	13.58028518	2677.034115	2.956314761	 	-17.4781	16.3065	13192.5	3.15841
-108.9126853	13.57721581	2674.221014	2.955859043	 	-16.9651	16.0889	13018.4	3.13495
-108.8127403	13.57431292	2671.472037	2.955418739	 	-16.4521	15.8733	12835.8	3.11136
-108.7127952	13.57141004	2668.72306	2.954978435	 	-15.9961	15.6838	12667	3.09035
-108.6128501	13.56850715	2665.974083	2.954538131	 	-15.4831	15.4732	12470	3.06667
-108.512905	13.56560426	2663.225106	2.954097827	 	-14.9701	15.265	12265.9	3.04293
-108.4129599	13.56266918	2660.5169	2.953658596	 	-14.4571	15.0588	12056	3.01913
