	p_Zyl_1	p_Ein	p_Aus
[KWnZOT]	[bar]	[bar]	[bar]
-360	2.8444	2.2842	2.8025
-359.9	2.8394	2.2844	2.8006
-359.8	2.8342	2.2847	2.7988
-359.7	2.8291	2.2849	2.797
-359.6	2.8239	2.2852	2.7952
-359.5	2.8187	2.2854	2.7935
-359.4	2.8135	2.2856	2.7917
-359.3	2.8083	2.2858	2.79
-359.2	2.803	2.286	2.7883
-359.1	2.7977	2.2862	2.7867
-359	2.7924	2.2864	2.7851
-358.9	2.787	2.2866	2.7835
-358.8	2.7816	2.2867	2.7819
-358.7	2.7762	2.2869	2.7803
-358.6	2.7708	2.287	2.7788
-358.5	2.7653	2.2872	2.7773
-358.4	2.7598	2.2873	2.7758
-358.3	2.7543	2.2874	2.7743
-358.2	2.7488	2.2876	2.7729
-358.1	2.7432	2.2877	2.7715
-358	2.7376	2.2878	2.7701
-357.9	2.732	2.2879	2.7686
-357.8	2.7264	2.288	2.7671
-357.7	2.7208	2.2881	2.7657
-357.6	2.7151	2.2882	2.7643
-357.5	2.7094	2.2882	2.763
-357.4	2.7036	2.2883	2.7617
-357.3	2.6978	2.2884	2.7604
-357.2	2.6921	2.2884	2.7593
-357.1	2.6862	2.2885	2.7582
-357	2.6803	2.2885	2.7571
-356.9	2.6743	2.2885	2.7561
-356.8	2.6684	2.2885	2.7552
-356.7	2.6623	2.2885	2.7542
-356.6	2.6563	2.2884	2.7534
-356.5	2.6502	2.2884	2.7526
-356.4	2.6441	2.2883	2.7518
-356.3	2.6379	2.2882	2.7511
-356.2	2.6317	2.288	2.7504
-356.1	2.6256	2.2879	2.7497
-356	2.6194	2.2877	2.749
-355.9	2.6131	2.2875	2.7483
-355.8	2.6068	2.2873	2.7476
-355.7	2.6005	2.2871	2.7468
-355.6	2.5943	2.2869	2.7461
-355.5	2.5879	2.2867	2.7453
-355.4	2.5817	2.2865	2.7445
-355.3	2.5755	2.2862	2.7437
-355.2	2.5693	2.2859	2.7429
-355.1	2.5633	2.2856	2.7421
-355	2.5572	2.2852	2.7413
-354.9	2.5512	2.2849	2.7405
-354.8	2.5453	2.2844	2.7397
-354.7	2.5393	2.284	2.739
-354.6	2.5334	2.2836	2.7382
-354.5	2.5276	2.2831	2.7375
-354.4	2.5218	2.2826	2.7368
-354.3	2.516	2.2821	2.7363
-354.2	2.5104	2.2816	2.7357
-354.1	2.5048	2.2811	2.7353
-354	2.4992	2.2805	2.7349
-353.9	2.4938	2.28	2.7345
-353.8	2.4883	2.2794	2.7342
-353.7	2.483	2.2788	2.7341
-353.6	2.4778	2.2782	2.734
-353.5	2.4727	2.2775	2.734
-353.4	2.4678	2.2768	2.734
-353.3	2.4631	2.2761	2.7341
-353.2	2.4585	2.2754	2.7344
-353.1	2.4538	2.2746	2.7346
-353	2.4494	2.2739	2.7349
-352.9	2.445	2.2731	2.7353
-352.8	2.4408	2.2723	2.7357
-352.7	2.4367	2.2715	2.7362
-352.6	2.4328	2.2707	2.7367
-352.5	2.429	2.2699	2.7372
-352.4	2.4252	2.2691	2.7378
-352.3	2.4216	2.2683	2.7383
-352.2	2.4181	2.2675	2.7389
-352.1	2.4149	2.2667	2.7395
-352	2.4117	2.2658	2.7402
-351.9	2.4087	2.265	2.7408
-351.8	2.4059	2.2642	2.7415
-351.7	2.4032	2.2633	2.7422
-351.6	2.4005	2.2625	2.7428
-351.5	2.3979	2.2616	2.7436
-351.4	2.3956	2.2608	2.7443
-351.3	2.3935	2.2599	2.7451
-351.2	2.3915	2.2591	2.7459
-351.1	2.3897	2.2582	2.7468
-351	2.388	2.2574	2.7477
-350.9	2.3863	2.2566	2.7486
-350.8	2.3847	2.2557	2.7495
-350.7	2.3831	2.2549	2.7505
-350.6	2.3818	2.254	2.7516
-350.5	2.3805	2.2532	2.7527
-350.4	2.3793	2.2523	2.7539
-350.3	2.3782	2.2515	2.7552
-350.2	2.3771	2.2506	2.7565
-350.1	2.3762	2.2498	2.7579
-350	2.3753	2.2489	2.7593
-349.9	2.3746	2.248	2.7608
-349.8	2.374	2.2471	2.7623
-349.7	2.3734	2.2462	2.7638
-349.6	2.3731	2.2453	2.7654
-349.5	2.3728	2.2444	2.767
-349.4	2.3725	2.2435	2.7686
-349.3	2.3723	2.2425	2.7703
-349.2	2.3721	2.2416	2.7719
-349.1	2.3719	2.2407	2.7736
-349	2.3719	2.2398	2.7752
-348.9	2.3719	2.2389	2.7768
-348.8	2.3719	2.2379	2.7784
-348.7	2.3718	2.237	2.7799
-348.6	2.3718	2.236	2.7815
-348.5	2.3719	2.2351	2.783
-348.4	2.3719	2.2341	2.7845
-348.3	2.372	2.2331	2.7859
-348.2	2.372	2.2321	2.7873
-348.1	2.3721	2.2312	2.7887
-348	2.3721	2.2302	2.7901
-347.9	2.3722	2.2293	2.7913
-347.8	2.3722	2.2284	2.7926
-347.7	2.3721	2.2274	2.7939
-347.6	2.3721	2.2265	2.7951
-347.5	2.3722	2.2255	2.7963
-347.4	2.3722	2.2246	2.7974
-347.3	2.3722	2.2236	2.7986
-347.2	2.3723	2.2227	2.7997
-347.1	2.3723	2.2218	2.8009
-347	2.3722	2.2208	2.8021
-346.9	2.3721	2.2199	2.8032
-346.8	2.372	2.2189	2.8044
-346.7	2.372	2.218	2.8056
-346.6	2.3719	2.2171	2.8068
-346.5	2.3718	2.2162	2.8081
-346.4	2.3718	2.2154	2.8094
-346.3	2.3717	2.2145	2.8107
-346.2	2.3715	2.2137	2.8121
-346.1	2.3715	2.2128	2.8135
-346	2.3715	2.212	2.815
-345.9	2.3713	2.2112	2.8165
-345.8	2.3713	2.2104	2.8179
-345.7	2.3712	2.2096	2.8194
-345.6	2.3712	2.2088	2.821
-345.5	2.3711	2.208	2.8226
-345.4	2.3708	2.2073	2.8241
-345.3	2.3708	2.2065	2.8257
-345.2	2.3707	2.2058	2.8272
-345.1	2.3705	2.2051	2.8288
-345	2.3705	2.2043	2.8303
-344.9	2.3703	2.2037	2.8318
-344.8	2.3702	2.203	2.8333
-344.7	2.37	2.2023	2.8348
-344.6	2.3699	2.2017	2.8363
-344.5	2.3699	2.201	2.8377
-344.4	2.3699	2.2004	2.8391
-344.3	2.3698	2.1998	2.8404
-344.2	2.3695	2.1991	2.8418
-344.1	2.3694	2.1985	2.8431
-344	2.3695	2.1979	2.8443
-343.9	2.3694	2.1973	2.8455
-343.8	2.3694	2.1966	2.8468
-343.7	2.3693	2.196	2.8479
-343.6	2.3693	2.1954	2.849
-343.5	2.3693	2.1948	2.8501
-343.4	2.3694	2.1942	2.8512
-343.3	2.3694	2.1936	2.8523
-343.2	2.3694	2.193	2.8534
-343.1	2.3693	2.1925	2.8544
-343	2.3692	2.1919	2.8554
-342.9	2.3692	2.1914	2.8564
-342.8	2.369	2.1909	2.8574
-342.7	2.3689	2.1903	2.8584
-342.6	2.3688	2.1898	2.8594
-342.5	2.3686	2.1893	2.8604
-342.4	2.3683	2.1888	2.8615
-342.3	2.3681	2.1883	2.8624
-342.2	2.3678	2.1877	2.8634
-342.1	2.3675	2.1872	2.8643
-342	2.367	2.1867	2.8652
-341.9	2.3665	2.1861	2.8661
-341.8	2.366	2.1856	2.8669
-341.7	2.3654	2.185	2.8676
-341.6	2.3649	2.1845	2.8684
-341.5	2.3641	2.184	2.869
-341.4	2.3634	2.1834	2.8696
-341.3	2.3626	2.1829	2.8701
-341.2	2.3618	2.1824	2.8705
-341.1	2.3609	2.1819	2.8709
-341	2.3599	2.1813	2.8711
-340.9	2.3589	2.1808	2.8714
-340.8	2.3578	2.1803	2.8715
-340.7	2.3568	2.1798	2.8716
-340.6	2.3558	2.1792	2.8715
-340.5	2.3546	2.1787	2.8714
-340.4	2.3534	2.1781	2.8713
-340.3	2.352	2.1776	2.8711
-340.2	2.3508	2.177	2.8708
-340.1	2.3496	2.1765	2.8704
-340	2.3482	2.1759	2.8701
-339.9	2.3469	2.1754	2.8697
-339.8	2.3456	2.1749	2.8693
-339.7	2.3442	2.1744	2.8689
-339.6	2.3429	2.1739	2.8684
-339.5	2.3414	2.1734	2.8679
-339.4	2.34	2.1729	2.8675
-339.3	2.3385	2.1725	2.867
-339.2	2.3371	2.1721	2.8666
-339.1	2.3357	2.1716	2.8661
-339	2.3342	2.1712	2.8657
-338.9	2.3328	2.1708	2.8652
-338.8	2.3313	2.1704	2.8648
-338.7	2.33	2.1699	2.8643
-338.6	2.3285	2.1695	2.8639
-338.5	2.327	2.1692	2.8634
-338.4	2.3257	2.1688	2.863
-338.3	2.3243	2.1684	2.8624
-338.2	2.3229	2.1681	2.8619
-338.1	2.3215	2.1677	2.8613
-338	2.3201	2.1674	2.8606
-337.9	2.3188	2.1671	2.8599
-337.8	2.3176	2.1668	2.8591
-337.7	2.3163	2.1665	2.8583
-337.6	2.315	2.1663	2.8575
-337.5	2.3137	2.166	2.8566
-337.4	2.3124	2.1657	2.8556
-337.3	2.3112	2.1655	2.8546
-337.2	2.31	2.1652	2.8535
-337.1	2.3087	2.165	2.8524
-337	2.3074	2.1647	2.8513
-336.9	2.3063	2.1644	2.8501
-336.8	2.3051	2.1642	2.8489
-336.7	2.3039	2.1639	2.8477
-336.6	2.3028	2.1636	2.8465
-336.5	2.3017	2.1633	2.8452
-336.4	2.3006	2.163	2.844
-336.3	2.2995	2.1627	2.8428
-336.2	2.2984	2.1624	2.8416
-336.1	2.2972	2.1621	2.8404
-336	2.2961	2.1617	2.8392
-335.9	2.2951	2.1614	2.838
-335.8	2.294	2.1611	2.8369
-335.7	2.2929	2.1608	2.8358
-335.6	2.2917	2.1605	2.8347
-335.5	2.2906	2.1602	2.8336
-335.4	2.2894	2.1598	2.8325
-335.3	2.2883	2.1595	2.8315
-335.2	2.2872	2.1592	2.8304
-335.1	2.2862	2.1589	2.8294
-335	2.2851	2.1586	2.8283
-334.9	2.2839	2.1583	2.8272
-334.8	2.2828	2.1581	2.8261
-334.7	2.2817	2.1578	2.825
-334.6	2.2806	2.1576	2.8238
-334.5	2.2796	2.1574	2.8226
-334.4	2.2785	2.1572	2.8214
-334.3	2.2775	2.157	2.8201
-334.2	2.2765	2.1568	2.8187
-334.1	2.2755	2.1567	2.8173
-334	2.2745	2.1566	2.8159
-333.9	2.2736	2.1564	2.8144
-333.8	2.2727	2.1563	2.8129
-333.7	2.2718	2.1563	2.8113
-333.6	2.271	2.1562	2.8097
-333.5	2.2702	2.1561	2.8081
-333.4	2.2695	2.156	2.8064
-333.3	2.2688	2.156	2.8047
-333.2	2.268	2.156	2.803
-333.1	2.2673	2.156	2.8014
-333	2.2667	2.156	2.7997
-332.9	2.2661	2.156	2.7981
-332.8	2.2654	2.156	2.7964
-332.7	2.2649	2.1561	2.7948
-332.6	2.2645	2.1561	2.7932
-332.5	2.2639	2.1562	2.7917
-332.4	2.2633	2.1563	2.7902
-332.3	2.2628	2.1564	2.7888
-332.2	2.2622	2.1565	2.7874
-332.1	2.2617	2.1567	2.7861
-332	2.2613	2.1568	2.7848
-331.9	2.2608	2.157	2.7836
-331.8	2.2604	2.1572	2.7824
-331.7	2.26	2.1574	2.7812
-331.6	2.2595	2.1576	2.78
-331.5	2.2593	2.1579	2.779
-331.4	2.259	2.1581	2.7779
-331.3	2.2588	2.1584	2.7769
-331.2	2.2586	2.1587	2.7759
-331.1	2.2583	2.1591	2.7749
-331	2.2581	2.1594	2.7739
-330.9	2.2579	2.1598	2.773
-330.8	2.2579	2.1602	2.772
-330.7	2.2578	2.1607	2.7711
-330.6	2.2578	2.1611	2.7701
-330.5	2.2579	2.1616	2.7691
-330.4	2.2579	2.1621	2.7682
-330.3	2.2578	2.1626	2.7672
-330.2	2.2578	2.1632	2.7663
-330.1	2.2579	2.1638	2.7653
-330	2.2581	2.1644	2.7644
-329.9	2.2583	2.165	2.7634
-329.8	2.2585	2.1656	2.7624
-329.7	2.2586	2.1662	2.7615
-329.6	2.2588	2.1669	2.7605
-329.5	2.2589	2.1676	2.7595
-329.4	2.2591	2.1683	2.7585
-329.3	2.2595	2.169	2.7576
-329.2	2.2598	2.1697	2.7567
-329.1	2.2602	2.1704	2.7559
-329	2.2607	2.1711	2.755
-328.9	2.2611	2.1719	2.7542
-328.8	2.2615	2.1727	2.7535
-328.7	2.2619	2.1734	2.7528
-328.6	2.2623	2.1742	2.7521
-328.5	2.2628	2.175	2.7515
-328.4	2.2633	2.1758	2.7509
-328.3	2.2638	2.1766	2.7504
-328.2	2.2644	2.1774	2.7499
-328.1	2.265	2.1782	2.7494
-328	2.2657	2.1791	2.749
-327.9	2.2664	2.1799	2.7485
-327.8	2.267	2.1807	2.7482
-327.7	2.2677	2.1815	2.7478
-327.6	2.2683	2.1824	2.7476
-327.5	2.2688	2.1832	2.7473
-327.4	2.2693	2.184	2.7471
-327.3	2.27	2.1848	2.7469
-327.2	2.2709	2.1856	2.7467
-327.1	2.2718	2.1865	2.7465
-327	2.2726	2.1873	2.7464
-326.9	2.2731	2.1882	2.7462
-326.8	2.2738	2.189	2.7461
-326.7	2.2742	2.1898	2.746
-326.6	2.2748	2.1907	2.7459
-326.5	2.2756	2.1915	2.7457
-326.4	2.2765	2.1923	2.7457
-326.3	2.2776	2.1931	2.7456
-326.2	2.2786	2.194	2.7455
-326.1	2.2794	2.1948	2.7455
-326	2.28	2.1956	2.7455
-325.9	2.2808	2.1964	2.7455
-325.8	2.282	2.1972	2.7455
-325.7	2.2852	2.198	2.7456
-325.6	2.2839	2.1988	2.7457
-325.5	2.2824	2.1996	2.7459
-325.4	2.2867	2.2004	2.7461
-325.3	2.292	2.2013	2.7463
-325.2	2.2958	2.2021	2.7466
-325.1	2.2963	2.2029	2.747
-325	2.2956	2.2037	2.7474
-324.9	2.2947	2.2046	2.7478
-324.8	2.293	2.2054	2.7483
-324.7	2.2924	2.2063	2.7489
-324.6	2.293	2.2072	2.7494
-324.5	2.2953	2.208	2.7501
-324.4	2.2967	2.2089	2.7508
-324.3	2.297	2.2098	2.7515
-324.2	2.2968	2.2107	2.7522
-324.1	2.2963	2.2116	2.753
-324	2.2945	2.2125	2.7538
-323.9	2.2928	2.2134	2.7547
-323.8	2.2929	2.2142	2.7556
-323.7	2.2933	2.2151	2.7565
-323.6	2.2931	2.216	2.7575
-323.5	2.2928	2.2169	2.7584
-323.4	2.2926	2.2177	2.7593
-323.3	2.2917	2.2186	2.7601
-323.2	2.29	2.2194	2.761
-323.1	2.2872	2.2203	2.762
-323	2.286	2.2211	2.7629
-322.9	2.2872	2.2219	2.7638
-322.8	2.287	2.2227	2.7647
-322.7	2.2855	2.2235	2.7656
-322.6	2.2843	2.2242	2.7664
-322.5	2.2837	2.2249	2.7673
-322.4	2.2829	2.2257	2.7683
-322.3	2.2823	2.2263	2.7692
-322.2	2.2826	2.227	2.7701
-322.1	2.2837	2.2276	2.7711
-322	2.2849	2.2282	2.772
-321.9	2.2855	2.2289	2.773
-321.8	2.286	2.2295	2.774
-321.7	2.2876	2.2301	2.775
-321.6	2.2869	2.2306	2.7759
-321.5	2.2905	2.2312	2.7769
-321.4	2.2961	2.2317	2.7779
-321.3	2.2968	2.2323	2.7788
-321.2	2.2949	2.2328	2.7797
-321.1	2.2924	2.2334	2.7806
-321	2.2926	2.2339	2.7815
-320.9	2.2934	2.2344	2.7824
-320.8	2.2945	2.2349	2.7833
-320.7	2.2978	2.2354	2.7841
-320.6	2.3013	2.2359	2.785
-320.5	2.3039	2.2363	2.7859
-320.4	2.3037	2.2367	2.7867
-320.3	2.3033	2.2371	2.7875
-320.2	2.3032	2.2375	2.7883
-320.1	2.3039	2.2378	2.789
-320	2.305	2.2382	2.7898
-319.9	2.3076	2.2386	2.7906
-319.8	2.3107	2.2389	2.7913
-319.7	2.3123	2.2393	2.7919
-319.6	2.313	2.2396	2.7926
-319.5	2.3134	2.24	2.7933
-319.4	2.314	2.2403	2.7939
-319.3	2.3139	2.2406	2.7947
-319.2	2.3143	2.2409	2.7956
-319.1	2.3155	2.2413	2.7965
-319	2.318	2.2416	2.7974
-318.9	2.3193	2.2419	2.7983
-318.8	2.3181	2.2422	2.7993
-318.7	2.3175	2.2425	2.8003
-318.6	2.3182	2.2427	2.8014
-318.5	2.3192	2.243	2.8025
-318.4	2.3203	2.2432	2.8036
-318.3	2.3218	2.2435	2.8047
-318.2	2.3234	2.2438	2.8058
-318.1	2.3239	2.244	2.8069
-318	2.3236	2.2443	2.8079
-317.9	2.3232	2.2446	2.8091
-317.8	2.3242	2.245	2.8101
-317.7	2.3261	2.2453	2.8111
-317.6	2.3269	2.2456	2.8121
-317.5	2.3272	2.246	2.8131
-317.4	2.3279	2.2464	2.814
-317.3	2.3288	2.2468	2.8148
-317.2	2.3287	2.2472	2.8156
-317.1	2.3289	2.2476	2.8164
-317	2.3294	2.2479	2.817
-316.9	2.3296	2.2483	2.8176
-316.8	2.3301	2.2487	2.8182
-316.7	2.3311	2.249	2.8187
-316.6	2.3316	2.2494	2.8192
-316.5	2.3313	2.2497	2.8195
-316.4	2.3307	2.2501	2.8199
-316.3	2.3307	2.2505	2.8202
-316.2	2.3311	2.2508	2.8204
-316.1	2.3323	2.2512	2.8207
-316	2.3331	2.2516	2.821
-315.9	2.3338	2.2519	2.8214
-315.8	2.3344	2.2523	2.8218
-315.7	2.3346	2.2526	2.8222
-315.6	2.3347	2.253	2.8226
-315.5	2.3348	2.2533	2.8231
-315.4	2.335	2.2537	2.8237
-315.3	2.3351	2.254	2.8243
-315.2	2.3357	2.2544	2.825
-315.1	2.336	2.2548	2.8256
-315	2.3361	2.2552	2.8262
-314.9	2.3363	2.2556	2.8268
-314.8	2.3367	2.2559	2.8274
-314.7	2.3368	2.2563	2.828
-314.6	2.3371	2.2567	2.8287
-314.5	2.3374	2.2571	2.8293
-314.4	2.3377	2.2575	2.8299
-314.3	2.3378	2.2579	2.8304
-314.2	2.3378	2.2584	2.8309
-314.1	2.3379	2.2588	2.8314
-314	2.3382	2.2593	2.8318
-313.9	2.3387	2.2597	2.8321
-313.8	2.339	2.2601	2.8323
-313.7	2.3393	2.2606	2.8325
-313.6	2.3393	2.261	2.8326
-313.5	2.3392	2.2615	2.8325
-313.4	2.3391	2.262	2.8324
-313.3	2.3393	2.2624	2.8322
-313.2	2.3392	2.2629	2.8319
-313.1	2.3394	2.2633	2.8315
-313	2.3395	2.2638	2.8311
-312.9	2.3396	2.2643	2.8306
-312.8	2.3395	2.2647	2.8301
-312.7	2.3395	2.2651	2.8295
-312.6	2.3392	2.2655	2.8289
-312.5	2.339	2.2659	2.8282
-312.4	2.3391	2.2663	2.8276
-312.3	2.3393	2.2667	2.8269
-312.2	2.3397	2.267	2.8263
-312.1	2.34	2.2674	2.8256
-312	2.3399	2.2678	2.8249
-311.9	2.3398	2.2682	2.8242
-311.8	2.3395	2.2686	2.8234
-311.7	2.3393	2.2689	2.8226
-311.6	2.3394	2.2694	2.8219
-311.5	2.3394	2.2698	2.821
-311.4	2.3395	2.2702	2.8203
-311.3	2.3397	2.2706	2.8195
-311.2	2.3398	2.2711	2.8187
-311.1	2.3396	2.2715	2.8179
-311	2.3394	2.2719	2.8171
-310.9	2.3394	2.2724	2.8163
-310.8	2.3393	2.2728	2.8155
-310.7	2.3392	2.2732	2.8147
-310.6	2.3391	2.2737	2.814
-310.5	2.3391	2.2741	2.8131
-310.4	2.3389	2.2745	2.8123
-310.3	2.3387	2.2748	2.8116
-310.2	2.3385	2.2752	2.8108
-310.1	2.3384	2.2756	2.81
-310	2.3382	2.276	2.8093
-309.9	2.3379	2.2763	2.8085
-309.8	2.3377	2.2767	2.8078
-309.7	2.3375	2.277	2.8071
-309.6	2.3372	2.2773	2.8065
-309.5	2.3369	2.2776	2.8059
-309.4	2.3367	2.2779	2.8053
-309.3	2.3366	2.2782	2.8048
-309.2	2.3364	2.2784	2.8043
-309.1	2.3361	2.2786	2.8038
-309	2.3359	2.2789	2.8034
-308.9	2.3357	2.2791	2.803
-308.8	2.3353	2.2793	2.8026
-308.7	2.3349	2.2795	2.8022
-308.6	2.3346	2.2796	2.8018
-308.5	2.3345	2.2798	2.8014
-308.4	2.3343	2.28	2.801
-308.3	2.3341	2.2801	2.8006
-308.2	2.3337	2.2803	2.8001
-308.1	2.3334	2.2804	2.7996
-308	2.333	2.2805	2.7991
-307.9	2.3326	2.2807	2.7985
-307.8	2.3324	2.2808	2.7979
-307.7	2.3322	2.2809	2.7972
-307.6	2.3321	2.281	2.7965
-307.5	2.332	2.281	2.7956
-307.4	2.3318	2.281	2.7948
-307.3	2.3314	2.281	2.7939
-307.2	2.3312	2.281	2.793
-307.1	2.331	2.281	2.792
-307	2.3307	2.2809	2.791
-306.9	2.3306	2.2809	2.7899
-306.8	2.3306	2.2808	2.7889
-306.7	2.3304	2.2807	2.7878
-306.6	2.3303	2.2805	2.7867
-306.5	2.3302	2.2804	2.7856
-306.4	2.3301	2.2802	2.7844
-306.3	2.3301	2.28	2.7833
-306.2	2.33	2.2798	2.7821
-306.1	2.33	2.2796	2.781
-306	2.33	2.2793	2.7798
-305.9	2.3299	2.279	2.7786
-305.8	2.3299	2.2786	2.7775
-305.7	2.3299	2.2783	2.7764
-305.6	2.3298	2.2779	2.7754
-305.5	2.3298	2.2775	2.7743
-305.4	2.3298	2.2772	2.7733
-305.3	2.3298	2.2768	2.7722
-305.2	2.3298	2.2764	2.7712
-305.1	2.3297	2.276	2.7703
-305	2.3296	2.2756	2.7693
-304.9	2.3294	2.2751	2.7684
-304.8	2.3292	2.2747	2.7675
-304.7	2.3292	2.2742	2.7666
-304.6	2.329	2.2737	2.7657
-304.5	2.3289	2.2732	2.7648
-304.4	2.3287	2.2727	2.7639
-304.3	2.3285	2.2722	2.763
-304.2	2.3282	2.2717	2.7621
-304.1	2.328	2.2712	2.7612
-304	2.3278	2.2707	2.7603
-303.9	2.3276	2.2702	2.7595
-303.8	2.3273	2.2697	2.7586
-303.7	2.3271	2.2691	2.7578
-303.6	2.3269	2.2686	2.757
-303.5	2.3266	2.2681	2.7562
-303.4	2.3263	2.2676	2.7555
-303.3	2.3261	2.2671	2.7548
-303.2	2.3259	2.2666	2.7541
-303.1	2.3257	2.266	2.7534
-303	2.3254	2.2655	2.7528
-302.9	2.3254	2.2649	2.7521
-302.8	2.3252	2.2643	2.7515
-302.7	2.3251	2.2637	2.7508
-302.6	2.325	2.2631	2.7502
-302.5	2.325	2.2625	2.7497
-302.4	2.3248	2.2619	2.7491
-302.3	2.3247	2.2613	2.7486
-302.2	2.3246	2.2607	2.7481
-302.1	2.3245	2.26	2.7477
-302	2.3243	2.2594	2.7473
-301.9	2.3241	2.2588	2.7469
-301.8	2.3238	2.2581	2.7466
-301.7	2.3238	2.2575	2.7463
-301.6	2.3236	2.2569	2.746
-301.5	2.3233	2.2562	2.7458
-301.4	2.3231	2.2556	2.7456
-301.3	2.3227	2.2549	2.7455
-301.2	2.3224	2.2542	2.7454
-301.1	2.322	2.2536	2.7453
-301	2.3217	2.2529	2.7453
-300.9	2.3215	2.2522	2.7453
-300.8	2.3212	2.2515	2.7454
-300.7	2.3209	2.2508	2.7455
-300.6	2.3205	2.2501	2.7456
-300.5	2.3202	2.2494	2.7458
-300.4	2.3199	2.2487	2.746
-300.3	2.3194	2.248	2.7464
-300.2	2.319	2.2474	2.7467
-300.1	2.3186	2.2467	2.747
-300	2.3182	2.2461	2.7474
-299.9	2.3177	2.2454	2.7477
-299.8	2.3172	2.2448	2.7481
-299.7	2.3168	2.2441	2.7485
-299.6	2.3162	2.2435	2.7489
-299.5	2.3157	2.2428	2.7493
-299.4	2.3151	2.2422	2.7497
-299.3	2.3145	2.2415	2.75
-299.2	2.3138	2.2408	2.7503
-299.1	2.3132	2.2402	2.7507
-299	2.3127	2.2395	2.751
-298.9	2.3121	2.2389	2.7512
-298.8	2.3115	2.2383	2.7515
-298.7	2.311	2.2377	2.7516
-298.6	2.3103	2.2371	2.7519
-298.5	2.3097	2.2365	2.752
-298.4	2.3091	2.2359	2.7522
-298.3	2.3087	2.2354	2.7524
-298.2	2.3081	2.2348	2.7525
-298.1	2.3076	2.2342	2.7526
-298	2.3069	2.2337	2.7528
-297.9	2.3063	2.2331	2.7529
-297.8	2.3057	2.2325	2.7531
-297.7	2.3052	2.232	2.7532
-297.6	2.3045	2.2315	2.7534
-297.5	2.3038	2.2309	2.7536
-297.4	2.3032	2.2304	2.7538
-297.3	2.3025	2.2299	2.754
-297.2	2.3019	2.2294	2.7543
-297.1	2.3012	2.2289	2.7546
-297	2.3007	2.2284	2.755
-296.9	2.3001	2.228	2.7554
-296.8	2.2994	2.2275	2.7558
-296.7	2.2987	2.2271	2.7562
-296.6	2.2981	2.2266	2.7567
-296.5	2.2974	2.2261	2.7572
-296.4	2.2967	2.2257	2.7578
-296.3	2.2959	2.2252	2.7584
-296.2	2.2952	2.2248	2.7589
-296.1	2.2945	2.2243	2.7596
-296	2.2937	2.2239	2.7603
-295.9	2.2928	2.2234	2.7609
-295.8	2.292	2.223	2.7617
-295.7	2.2913	2.2226	2.7624
-295.6	2.2905	2.2221	2.7632
-295.5	2.2896	2.2217	2.7639
-295.4	2.2889	2.2213	2.7647
-295.3	2.288	2.2209	2.7655
-295.2	2.2871	2.2205	2.7664
-295.1	2.2864	2.2201	2.7673
-295	2.2856	2.2197	2.7681
-294.9	2.2848	2.2192	2.7689
-294.8	2.2841	2.2188	2.7698
-294.7	2.2834	2.2183	2.7707
-294.6	2.2826	2.2179	2.7716
-294.5	2.2819	2.2174	2.7725
-294.4	2.2812	2.217	2.7735
-294.3	2.2805	2.2165	2.7744
-294.2	2.2798	2.216	2.7753
-294.1	2.2791	2.2156	2.7763
-294	2.2783	2.2151	2.7772
-293.9	2.2776	2.2147	2.7782
-293.8	2.2768	2.2143	2.7791
-293.7	2.2761	2.2139	2.78
-293.6	2.2753	2.2135	2.7809
-293.5	2.2746	2.2131	2.7818
-293.4	2.2739	2.2126	2.7827
-293.3	2.2732	2.2122	2.7835
-293.2	2.2725	2.2118	2.7844
-293.1	2.2718	2.2114	2.7852
-293	2.2711	2.2109	2.786
-292.9	2.2703	2.2105	2.7868
-292.8	2.2695	2.21	2.7875
-292.7	2.2688	2.2096	2.7883
-292.6	2.268	2.2092	2.789
-292.5	2.2672	2.2087	2.7897
-292.4	2.2664	2.2083	2.7903
-292.3	2.2657	2.2079	2.791
-292.2	2.265	2.2075	2.7916
-292.1	2.2642	2.2071	2.7922
-292	2.2635	2.2067	2.7928
-291.9	2.2627	2.2063	2.7934
-291.8	2.262	2.2059	2.794
-291.7	2.2613	2.2055	2.7946
-291.6	2.2606	2.2051	2.7952
-291.5	2.2598	2.2047	2.7959
-291.4	2.259	2.2043	2.7965
-291.3	2.2582	2.2038	2.7972
-291.2	2.2575	2.2034	2.7979
-291.1	2.2568	2.2029	2.7986
-291	2.2561	2.2025	2.7993
-290.9	2.2554	2.202	2.8
-290.8	2.2547	2.2016	2.8008
-290.7	2.254	2.2011	2.8015
-290.6	2.2532	2.2007	2.8023
-290.5	2.2526	2.2002	2.803
-290.4	2.2519	2.1997	2.8037
-290.3	2.2512	2.1993	2.8044
-290.2	2.2505	2.1988	2.8051
-290.1	2.2496	2.1984	2.8058
-290	2.249	2.1979	2.8064
